1618834771.00
64.000000
-0.00
-0.00
-0.00
-0.00
-0.00
-0.00
-0.00
-0.00
-0.00
-0.00
0.00
0.01
0.01
-0.00
-0.03
-0.05
-0.05
0.00
0.13
0.36
0.66
1.01
1.37
1.72
2.06
2.40
2.78
3.23
3.80
4.44
5.13
5.79
6.38
6.88
7.34
7.82
8.40
9.22
10.22
11.32
12.39
13.34
14.20
15.08
16.20
17.74
19.96
22.71
25.75
28.74
31.48
33.94
36.41
39.31
43.03
48.09
54.25
61.03
67.79
74.01
79.57
84.82
90.47
97.23
105.94
116.38
127.88
139.42
150.10
159.52
168.02
176.93
185.31
195.97
210.04
227.86
248.01
267.01
279.81
281.27
267.99
239.58
199.18
151.39
100.91
50.85
2.27
-45.34
-92.97
-141.28
-190.18
-238.55
-284.73
-326.09
-359.32
-381.14
-389.46
-384.33
-368.02
-344.40
-317.35
-289.90
-263.73
-239.46
-217.32
-197.50
-180.12
-164.95
-151.27
-137.90
-123.98
-109.23
-94.16
-79.78
-67.15
-56.81
-48.65
-41.95
-35.74
-29.28
-22.30
-15.05
-8.11
-2.06
2.73
6.30
8.98
11.20
13.33
15.54
17.76
19.82
21.51
22.71
23.37
23.57
23.42
23.08
22.68
22.33
22.04
21.77
21.42
20.90
20.15
19.20
18.19
17.27
16.57
16.12
15.88
15.72
15.52
15.19
14.73
14.19
13.62
13.11
12.66
12.30
12.00
11.77
11.61
11.49
11.38
11.24
11.05
10.81
10.55
10.30
10.06
9.80
9.50
9.17
8.83
8.51
8.20
7.88
7.55
7.23
7.01
6.93
7.01
7.11
7.11
6.86
6.39
5.80
5.27
4.91
4.70
4.57
4.42
4.23
4.03
3.86
3.69
3.43
2.97
2.30
1.53
0.87
0.50
0.46
0.70
1.05
1.38
1.62
1.82
1.99
2.15
2.26
2.25
2.10
1.85
1.54
1.24
0.95
0.66
0.31
-0.11
-0.57
-0.99
-1.30
-1.43
-1.40
-1.30
-1.21
-1.21
-1.34
-1.52
-1.68
-1.74
-1.67
-1.51
-1.32
-1.14
-0.99
-0.87
-0.76
-0.66
-0.58
-0.49
-0.39
-0.24
-0.01
0.27
0.59
0.90
1.18
1.40
1.58
1.71
1.76
1.73
1.64
1.51
1.37
1.26
1.16
1.04
0.88
0.71
0.56
0.49
0.54
0.71
0.93
1.15
1.28
1.30
1.21
1.06
0.93
0.86
0.90
1.02
1.20
1.42
1.67
1.94
2.21
2.44
2.60
2.69
2.77
2.91
3.15
3.50
3.90
4.25
4.44
4.40
4.12
3.68
3.17
2.75
2.50
2.45
2.52
2.62
2.63
2.51
2.31
2.11
2.00
2.01
2.14
2.33
2.50
2.61
2.62
2.52
2.31
2.00
1.61
1.17
0.74
0.40
0.20
0.17
0.26
0.41
0.53
0.55
0.45
0.24
-0.04
-0.34
-0.62
-0.82
-0.89
-0.84
-0.71
-0.57
-0.49
-0.50
-0.56
-0.61
-0.62
-0.58
-0.53
-0.50
-0.50
-0.50
-0.43
-0.27
-0.01
0.26
0.48
0.57
0.56
0.47
0.38
0.29
0.22
0.14
0.05
-0.04
-0.10
-0.09
-0.01
0.09
0.12
-0.01
-0.39
-1.02
-1.86
-2.80
-3.72
-4.53
-5.15
-5.60
-5.96
-6.35
-6.92
-7.80
-9.00
-10.40
-11.81
-13.02
-13.94
-14.73
-15.67
-17.13
-19.28
-22.01
-24.96
-27.70
-29.92
-31.70
-33.42
-35.55
-38.41
-41.95
-45.72
-49.06
-51.46
-52.75
-53.25
-53.60
-54.50
-56.51
-59.96
-64.91
-70.99
-77.12
-81.33
-80.96
-73.40
-57.23
-33.15
-4.17
25.25
50.74
69.46
80.85
86.21
87.64
86.90
84.84
81.65
77.35
72.33
67.28
62.97
59.73
57.36
55.22
52.58
49.01
44.60
39.85
35.43
31.90
29.45
27.83
26.54
25.00
22.84
20.07
17.03
14.24
12.14
10.91
10.35
10.07
9.64
8.79
7.53
6.10
4.79
3.81
3.23
2.93
2.74
2.51
2.18
1.75
1.28
0.79
0.32
-0.11
-0.49
-0.76
-0.88
-0.82
-0.61
-0.30
0.02
0.27
0.39
0.39
0.36
0.39
0.54
0.81
1.13
1.41
1.57
1.60
1.60
1.69
2.01
2.62
3.47
4.40
5.23
5.80
6.08
6.18
6.34
6.78
7.62
8.78
9.97
10.86
11.24
11.17
11.00
11.17
12.03
13.60
15.57
17.44
18.78
19.42
19.52
19.50
19.80
20.74
22.39
24.68
27.36
29.99
31.79
31.72
28.64
21.87
11.59
-0.88
-13.47
-24.00
-31.03
-34.26
-34.46
-32.92
-30.75
-28.57
-26.47
-24.34
-22.18
-20.21
-18.72
-17.88
-17.58
-17.46
-17.13
-16.28
-14.90
-13.18
-11.46
-10.04
-9.06
-8.47
-8.02
-7.44
-6.53
-5.29
-3.92
-2.73
-1.98
-1.77
-1.96
-2.25
-2.23
-1.64
-0.42
1.22
2.86
4.11
4.76
4.94
5.14
5.97
7.90
11.00
14.86
18.73
21.85
23.80
24.72
25.34
26.58
29.17
33.24
38.24
43.14
46.93
49.07
49.70
49.62
49.79
50.94
53.41
57.17
61.84
66.45
69.13
67.20
58.02
40.26
15.17
-13.38
-39.97
-59.82
-70.58
-73.06
-70.28
-65.65
-61.38
-57.90
-54.51
-50.54
-46.09
-42.00
-39.16
-37.84
-37.44
-36.91
-35.30
-32.30
-28.43
-24.70
-22.09
-21.11
-21.54
-22.64
-23.47
-23.29
-21.84
-19.43
-16.73
-14.45
-13.04
-12.51
-12.50
-12.41
-11.75
-10.36
-8.44
-6.49
-4.95
-4.06
-3.74
-3.69
-3.56
-3.09
-2.20
-0.92
0.63
2.32
4.02
5.59
6.89
7.83
8.35
8.47
8.27
7.86
7.35
6.81
6.24
5.66
5.08
4.50
3.99
3.58
3.27
3.04
2.82
2.54
2.19
1.82
1.54
1.43
1.51
1.73
1.99
2.20
2.31
2.28
2.13
1.85
1.45
0.96
0.42
-0.08
-0.50
-0.79
-0.96
-1.02
-0.99
-0.88
-0.75
-0.66
-0.68
-0.86
-1.18
-1.55
-1.89
-2.09
-2.11
-1.96
-1.70
-1.37
-1.03
-0.72
-0.47
-0.25
-0.06
0.12
0.27
0.33
0.22
-0.09
-0.58
-1.13
-1.61
-1.91
-1.99
-1.90
-1.72
-1.55
-1.46
-1.45
-1.45
-1.38
-1.22
-0.97
-0.71
-0.52
-0.47
-0.53
-0.63
-0.67
-0.63
-0.53
-0.46
-0.50
-0.68
-0.95
-1.18
-1.30
-1.24
-1.03
-0.76
-0.53
-0.40
-0.42
-0.54
-0.71
-0.83
-0.89
-0.89
-0.86
-0.84
-0.87
-0.92
-0.93
-0.83
-0.57
-0.14
0.37
0.88
1.28
1.54
1.68
1.78
1.86
1.93
1.91
1.76
1.46
1.12
0.88
0.88
1.18
1.72
2.36
2.93
3.29
3.40
3.26
2.96
2.59
2.22
1.89
1.59
1.31
1.05
0.83
0.69
0.63
0.59
0.45
0.15
-0.33
-0.95
-1.59
-2.13
-2.51
-2.70
-2.74
-2.68
-2.60
-2.55
-2.56
-2.58
-2.52
-2.26
-1.77
-1.08
-0.31
0.35
0.74
0.76
0.48
0.03
-0.38
-0.60
-0.56
-0.34
-0.13
-0.05
-0.18
-0.46
-0.76
-0.99
-1.09
-1.12
-1.15
-1.23
-1.33
-1.38
-1.30
-1.10
-0.81
-0.51
-0.25
-0.06
0.09
0.22
0.36
0.52
0.69
0.82
0.91
0.95
0.95
0.92
0.82
0.62
0.32
0.02
-0.17
-0.12
0.16
0.55
0.81
0.75
0.34
-0.24
-0.73
-0.88
-0.64
-0.13
0.44
0.87
1.07
1.06
0.87
0.56
0.15
-0.29
-0.67
-0.89
-0.88
-0.69
-0.41
-0.19
-0.08
-0.07
-0.11
-0.14
-0.12
-0.09
-0.06
-0.06
-0.11
-0.19
-0.31
-0.43
-0.49
-0.45
-0.28
-0.03
0.21
0.32
0.24
0.00
-0.33
-0.64
-0.91
-1.10
-1.22
-1.25
-1.16
-0.96
-0.69
-0.42
-0.22
-0.08
0.02
0.17
0.39
0.67
1.00
1.33
1.64
1.90
2.07
2.08
1.89
1.49
0.97
0.44
0.05
-0.11
-0.02
0.24
0.58
0.89
1.09
1.15
1.10
0.96
0.77
0.54
0.26
-0.11
-0.57
-1.09
-1.57
-1.91
-2.05
-1.95
-1.69
-1.35
-1.03
-0.79
-0.66
-0.62
-0.62
-0.62
-0.56
-0.43
-0.24
-0.03
0.13
0.16
0.07
-0.11
-0.29
-0.38
-0.35
-0.22
-0.06
0.04
0.02
-0.13
-0.36
-0.61
-0.77
-0.81
-0.71
-0.55
-0.42
-0.40
-0.50
-0.65
-0.75
-0.69
-0.44
-0.07
0.30
0.59
0.76
0.86
0.90
0.86
0.67
0.28
-0.25
-0.77
-1.05
-0.95
-0.47
0.22
0.86
1.24
1.25
0.94
0.48
0.02
-0.33
-0.53
-0.62
-0.66
-0.64
-0.56
-0.41
-0.21
-0.02
0.05
-0.05
-0.29
-0.55
-0.65
-0.51
-0.11
0.43
0.92
1.21
1.24
1.05
0.75
0.45
0.23
0.11
0.07
0.08
0.09
0.08
0.03
-0.04
-0.12
-0.19
-0.25
-0.28
-0.27
-0.20
-0.06
0.15
0.39
0.60
0.74
0.77
0.70
0.54
0.33
0.11
-0.06
-0.14
-0.10
0.04
0.22
0.36
0.38
0.24
-0.02
-0.30
-0.49
-0.49
-0.31
0.01
0.38
0.70
0.89
0.91
0.76
0.47
0.09
-0.33
-0.73
-1.11
-1.45
-1.75
-1.97
-2.07
-2.00
-1.75
-1.35
-0.84
-0.28
0.27
0.79
1.26
1.63
1.86
1.91
1.80
1.58
1.33
1.12
0.97
0.82
0.61
0.31
-0.07
-0.45
-0.73
-0.81
-0.70
-0.46
-0.22
-0.06
-0.04
-0.15
-0.33
-0.54
-0.75
-0.97
-1.20
-1.42
-1.58
-1.65
-1.64
-1.61
-1.59
-1.59
-1.57
-1.48
-1.27
-0.98
-0.71
-0.54
-0.54
-0.67
-0.83
-0.94
-0.95
-0.87
-0.77
-0.70
-0.66
-0.60
-0.43
-0.12
0.30
0.74
1.07
1.22
1.21
1.13
1.07
1.06
1.01
0.80
0.33
-0.34
-1.03
-1.48
-1.52
-1.16
-0.57
-0.00
0.31
0.29
0.03
-0.31
-0.55
-0.60
-0.47
-0.21
0.10
0.44
0.78
1.10
1.34
1.48
1.49
1.42
1.34
1.30
1.31
1.37
1.45
1.51
1.51
1.43
1.26
1.02
0.77
0.58
0.51
0.55
0.63
0.72
0.79
0.91
1.14
1.50
1.87
2.09
2.03
1.66
1.12
0.60
0.25
0.12
0.14
0.20
0.22
0.22
0.25
0.36
0.51
0.61
0.57
0.31
-0.08
-0.47
-0.72
-0.76
-0.65
-0.48
-0.37
-0.33
-0.33
-0.34
-0.33
-0.33
-0.39
-0.51
-0.64
-0.70
-0.62
-0.41
-0.12
0.19
0.51
0.86
1.26
1.70
2.09
2.34
2.40
2.29
2.10
1.93
1.82
1.73
1.60
1.36
1.02
0.63
0.30
0.09
-0.01
-0.06
-0.12
-0.27
-0.53
-0.86
-1.22
-1.55
-1.83
-2.01
-2.09
-2.05
-1.90
-1.68
-1.43
-1.21
-1.06
-1.03
-1.14
-1.41
-1.78
-2.16
-2.44
-2.50
-2.30
-1.86
-1.30
-0.78
-0.39
-0.20
-0.15
-0.15
-0.13
-0.09
-0.05
-0.07
-0.16
-0.28
-0.38
-0.43
-0.44
-0.50
-0.68
-0.99
-1.39
-1.78
-2.03
-2.10
-1.97
-1.66
-1.21
-0.64
0.03
0.72
1.33
1.75
1.90
1.79
1.52
1.22
0.99
0.85
0.78
0.75
0.77
0.87
1.09
1.43
1.82
2.12
2.21
2.00
1.53
0.90
0.26
-0.22
-0.47
-0.53
-0.52
-0.59
-0.86
-1.35
-1.96
-2.52
-2.90
-3.01
-2.87
-2.53
-2.08
-1.51
-0.87
-0.18
0.48
1.01
1.37
1.56
1.66
1.75
1.88
2.04
2.20
2.32
2.42
2.53
2.68
2.84
2.91
2.81
2.48
1.95
1.36
0.85
0.52
0.36
0.24
0.04
-0.35
-0.88
-1.42
-1.78
-1.84
-1.61
-1.24
-0.91
-0.75
-0.77
-0.91
-1.07
-1.17
-1.20
-1.15
-1.06
-0.95
-0.81
-0.66
-0.53
-0.44
-0.41
-0.44
-0.48
-0.46
-0.34
-0.08
0.28
0.66
0.96
1.10
1.04
0.86
0.67
0.57
0.61
0.75
0.90
1.02
1.12
1.23
1.38
1.54
1.57
1.39
0.93
0.27
-0.43
-1.00
-1.34
-1.44
-1.40
-1.36
-1.42
-1.62
-1.92
-2.19
-2.32
-2.20
-1.85
-1.36
-0.86
-0.46
-0.17
0.07
0.36
0.76
1.21
1.62
1.85
1.85
1.59
1.16
0.62
0.09
-0.39
-0.78
-1.04
-1.17
-1.11
-0.87
-0.44
0.10
0.66
1.10
1.33
1.35
1.25
1.13
1.08
1.12
1.18
1.16
0.98
0.62
0.14
-0.32
-0.61
-0.56
-0.08
0.80
1.90
2.93
3.59
3.67
3.12
2.06
0.73
-0.60
-1.73
-2.53
-2.98
-3.12
-3.07
-2.94
-2.84
-2.79
-2.75
-2.64
-2.38
-1.92
-1.29
-0.55
0.20
0.85
1.30
1.48
1.35
0.94
0.34
-0.28
-0.74
-0.93
-0.80
-0.43
0.08
0.64
1.13
1.49
1.66
1.63
1.46
1.28
1.24
1.44
1.87
2.41
2.92
3.28
3.48
3.56
3.56
3.49
3.30
2.95
2.44
1.86
1.29
0.79
0.33
-0.17
-0.78
-1.50
-2.23
-2.81
-3.13
-3.16
-2.99
-2.73
-2.51
-2.36
-2.30
-2.26
-2.21
-2.13
-1.97
-1.73
-1.38
-0.91
-0.30
0.41
1.16
1.83
2.30
2.45
2.26
1.77
1.12
0.47
-0.06
-0.42
-0.63
-0.74
-0.78
-0.71
-0.50
-0.16
0.23
0.53
0.63
0.48
0.08
-0.48
-1.12
-1.78
-2.41
-2.98
-3.39
-3.58
-3.49
-3.15
-2.66
-2.19
-1.87
-1.73
-1.72
-1.75
-1.71
-1.55
-1.24
-0.80
-0.25
0.38
1.03
1.59
1.95
2.03
1.83
1.45
1.05
0.75
0.60
0.52
0.40
0.18
-0.18
-0.59
-0.93
-1.10
-1.04
-0.74
-0.29
0.23
0.72
1.11
1.38
1.53
1.61
1.65
1.65
1.60
1.44
1.16
0.79
0.42
0.13
-0.02
-0.02
0.08
0.19
0.26
0.28
0.28
0.32
0.47
0.74
1.10
1.44
1.59
1.45
0.95
0.21
-0.54
-1.07
-1.20
-0.95
-0.52
-0.19
-0.19
-0.60
-1.33
-2.18
-2.95
-3.48
-3.69
-3.46
-2.71
-1.38
0.45
2.51
4.40
5.70
6.13
5.63
4.42
2.86
1.29
-0.02
-0.97
-1.55
-1.85
-1.95
-1.98
-2.06
-2.25
-2.47
-2.56
-2.28
-1.48
-0.15
1.50
3.13
4.35
4.92
4.75
3.93
2.67
1.21
-0.20
-1.35
-2.09
-2.36
-2.26
-1.98
-1.76
-1.79
-2.07
-2.50
-2.86
-2.98
-2.79
-2.30
-1.59
-0.74
0.22
1.19
2.05
2.63
2.79
2.51
1.90
1.20
0.64
0.33
0.27
0.31
0.32
0.21
0.02
-0.21
-0.41
-0.54
-0.62
-0.64
-0.58
-0.41
-0.14
0.19
0.46
0.59
0.54
0.40
0.29
0.32
0.50
0.73
0.91
0.92
0.76
0.52
0.28
0.10
-0.04
-0.19
-0.42
-0.71
-1.00
-1.22
-1.29
-1.22
-1.05
-0.85
-0.64
-0.41
-0.13
0.22
0.59
0.91
1.08
1.03
0.77
0.41
0.10
-0.04
0.01
0.18
0.34
0.35
0.16
-0.18
-0.54
-0.80
-0.86
-0.74
-0.48
-0.22
-0.07
-0.09
-0.28
-0.55
-0.81
-0.95
-0.93
-0.77
-0.57
-0.43
-0.39
-0.43
-0.45
-0.31
0.07
0.63
1.22
1.61
1.66
1.39
0.98
0.67
0.61
0.79
1.06
1.19
1.05
0.67
0.22
-0.10
-0.18
-0.00
0.33
0.69
0.99
1.17
1.15
0.90
0.39
-0.35
-1.21
-2.02
-2.64
-2.98
-3.04
-2.89
-2.61
-2.27
-1.89
-1.48
-1.05
-0.62
-0.18
0.24
0.62
0.93
1.11
1.10
0.91
0.62
0.34
0.18
0.18
0.29
0.42
0.50
0.51
0.52
0.59
0.78
1.06
1.36
1.63
1.84
1.96
1.98
1.82
1.41
0.71
-0.22
-1.23
-2.10
-2.65
-2.79
-2.56
-2.06
-1.41
-0.73
-0.11
0.38
0.69
0.82
0.78
0.67
0.57
0.55
0.62
0.73
0.81
0.76
0.56
0.25
-0.13
-0.47
-0.73
-0.86
-0.88
-0.82
-0.73
-0.60
-0.45
-0.25
-0.01
0.21
0.34
0.35
0.26
0.10
-0.02
-0.07
-0.05
-0.03
-0.06
-0.18
-0.35
-0.50
-0.56
-0.54
-0.47
-0.43
-0.46
-0.55
-0.65
-0.68
-0.62
-0.50
-0.40
-0.40
-0.56
-0.86
-1.22
-1.55
-1.82
-2.00
-2.11
-2.17
-2.16
-2.11
-2.00
-1.88
-1.84
-1.92
-2.12
-2.39
-2.64
-2.84
-2.98
-3.14
-3.40
-3.80
-4.34
-4.96
-5.62
-6.27
-6.91
-7.53
-8.13
-8.68
-9.16
-9.61
-10.07
-10.62
-11.33
-12.18
-13.08
-13.90
-14.45
-14.62
-14.36
-13.68
-12.63
-11.22
-9.33
-6.75
-3.19
1.58
7.52
14.23
21.00
26.96
31.37
33.88
34.62
34.10
32.93
31.58
30.18
28.63
26.69
24.25
21.35
18.21
15.06
12.06
9.21
6.44
3.69
0.99
-1.46
-3.38
-4.56
-4.92
-4.64
-4.02
-3.45
-3.21
-3.38
-3.87
-4.42
-4.80
-4.88
-4.70
-4.40
-4.13
-3.97
-3.88
-3.76
-3.57
-3.31
-3.09
-3.01
-3.10
-3.31
-3.53
-3.71
-3.87
-4.11
-4.48
-4.99
-5.49
-5.79
-5.76
-5.39
-4.82
-4.28
-3.97
-3.99
-4.29
-4.73
-5.12
-5.34
-5.35
-5.25
-5.19
-5.33
-5.79
-6.52
-7.39
-8.22
-8.85
-9.24
-9.42
-9.52
-9.65
-9.88
-10.26
-10.78
-11.40
-12.03
-12.50
-12.57
-12.01
-10.69
-8.66
-6.17
-3.57
-1.20
0.75
2.23
3.28
3.89
3.99
3.46
2.22
0.37
-1.78
-3.80
-5.32
-6.24
-6.82
-7.60
-9.19
-11.99
-15.95
-20.58
-25.11
-28.81
-31.37
-33.04
-34.57
-36.86
-40.52
-45.63
-51.61
-57.55
-62.59
-66.26
-68.71
-70.60
-72.82
-76.32
-81.89
-89.96
-100.04
-110.31
-117.40
-117.08
-105.61
-81.47
-46.42
-5.30
35.42
69.93
94.77
109.46
115.76
116.33
113.44
108.50
102.29
95.47
88.87
83.36
79.52
77.37
76.36
75.57
74.09
71.39
67.45
62.73
58.01
54.15
51.77
51.05
51.73
53.15
54.48
54.98
54.28
52.54
50.43
48.99
49.21
51.61
55.98
61.33
66.29
69.63
70.79
70.18
68.93
68.55
70.46
75.67
84.52
96.28
108.71
117.87
118.70
106.52
79.17
38.55
-9.23
-55.66
-92.76
-115.84
-124.74
-122.95
-115.40
-106.18
-97.31
-89.07
-81.13
-73.63
-67.37
-63.27
-61.49
-61.12
-60.45
-57.85
-52.70
-45.62
-38.21
-32.25
-28.79
-27.75
-28.06
-28.22
-27.04
-24.13
-19.94
-15.52
-11.94
-9.87
-9.33
-9.80
-10.46
-10.60
-9.85
-8.29
-6.37
-4.66
-3.56
-3.19
-3.34
-3.68
-3.87
-3.82
-3.60
-3.42
-3.44
-3.72
-4.16
-4.59
-4.92
-5.15
-5.42
-5.89
-6.71
-7.88
-9.29
-10.72
-11.97
-12.94
-13.67
-14.37
-15.38
-17.03
-19.48
-22.60
-26.01
-29.16
-31.60
-33.19
-34.20
-35.27
-37.09
-40.13
-44.30
