1628003899.00
64.000000
-0.00
-0.00
-0.00
-0.00
-0.00
-0.00
-0.00
-0.00
-0.00
-0.00
0.00
0.01
0.01
-0.00
-0.03
-0.05
-0.05
0.00
0.13
0.36
0.66
1.01
1.37
1.72
2.06
2.40
2.79
3.24
3.80
4.44
5.09
5.73
6.33
6.90
7.50
8.21
9.09
10.22
11.53
12.92
14.27
15.54
16.77
18.09
19.70
21.71
24.34
27.41
30.67
33.85
36.84
39.72
42.80
46.50
51.11
57.00
63.84
71.15
78.42
85.35
92.02
98.91
106.69
115.82
126.84
139.28
152.44
165.57
178.20
190.40
202.74
216.39
229.91
245.50
263.81
285.16
308.62
331.49
349.47
357.74
352.61
332.83
300.61
259.89
215.35
170.70
127.85
87.08
47.91
9.93
-26.81
-61.67
-94.41
-124.97
-153.53
-180.31
-205.45
-228.97
-250.88
-271.53
-291.68
-312.51
-335.21
-360.05
-385.61
-408.65
-424.84
-430.29
-423.09
-404.08
-376.56
-344.91
-312.98
-283.02
-255.67
-230.61
-207.37
-185.85
-166.16
-148.31
-132.01
-116.65
-101.69
-86.96
-72.71
-59.55
-48.03
-38.41
-30.48
-23.68
-17.34
-10.95
-4.35
2.24
8.33
13.44
17.30
19.98
21.82
23.27
24.72
26.32
27.99
29.52
30.67
31.30
31.41
31.09
30.52
29.87
29.28
28.82
28.45
28.07
27.56
26.84
25.90
24.82
23.69
22.60
21.57
20.61
19.69
18.86
18.16
17.67
17.39
17.21
16.98
16.54
15.80
14.84
13.79
12.81
11.98
11.27
10.63
10.09
9.79
9.91
10.57
11.70
13.01
14.12
14.71
14.66
14.13
13.39
12.73
12.30
12.08
11.94
11.66
11.10
10.27
9.25
8.23
7.36
6.67
6.05
5.34
4.41
3.31
2.21
1.33
0.81
0.57
0.38
-0.03
-0.83
-2.00
-3.39
-4.83
-6.22
-7.50
-8.65
-9.59
-10.23
-10.53
-10.57
-10.56
-10.72
-11.19
-11.91
-12.68
-13.27
-13.51
-13.40
-13.04
-12.59
-12.15
-11.75
-11.33
-10.85
-10.27
-9.59
-8.84
-8.00
-7.08
-6.09
-5.09
-4.17
-3.46
-3.01
-2.80
-2.71
-2.59
-2.29
-1.78
-1.10
-0.37
0.31
0.88
1.34
1.74
2.09
2.42
2.72
3.00
3.27
3.54
3.82
4.10
4.37
4.62
4.85
5.08
5.31
5.56
5.82
6.10
6.37
6.61
6.78
6.87
6.84
6.70
6.49
6.27
6.10
6.04
6.09
6.21
6.34
6.40
6.37
6.28
6.20
6.19
6.28
6.44
6.62
6.76
6.80
6.74
6.60
6.40
6.15
5.85
5.48
5.05
4.59
4.16
3.84
3.67
3.64
3.71
3.80
3.83
3.80
3.74
3.69
3.65
3.61
3.50
3.29
2.97
2.62
2.35
2.24
2.35
2.63
2.91
3.05
2.95
2.63
2.26
2.03
2.06
2.34
2.69
2.88
2.76
2.39
1.95
1.64
1.61
1.82
2.11
2.33
2.42
2.41
2.40
2.45
2.52
2.53
2.41
2.15
1.85
1.60
1.47
1.45
1.49
1.56
1.64
1.73
1.81
1.83
1.72
1.44
1.02
0.59
0.31
0.27
0.48
0.80
1.09
1.20
1.13
0.97
0.84
0.86
1.03
1.28
1.52
1.66
1.67
1.58
1.44
1.30
1.18
1.12
1.12
1.19
1.31
1.46
1.60
1.67
1.64
1.48
1.25
1.01
0.85
0.82
0.89
0.95
0.91
0.70
0.35
-0.02
-0.27
-0.28
-0.09
0.23
0.56
0.83
1.06
1.29
1.54
1.79
1.94
1.95
1.82
1.63
1.48
1.44
1.51
1.60
1.62
1.52
1.31
1.05
0.83
0.70
0.66
0.68
0.71
0.70
0.60
0.43
0.24
0.09
0.03
0.06
0.15
0.23
0.27
0.26
0.22
0.21
0.25
0.35
0.46
0.53
0.52
0.44
0.33
0.27
0.31
0.47
0.70
0.92
1.06
1.09
1.01
0.87
0.72
0.58
0.44
0.29
0.14
0.02
-0.01
0.06
0.22
0.41
0.56
0.61
0.48
0.17
-0.30
-0.83
-1.28
-1.47
-1.33
-0.91
-0.36
0.08
0.23
0.06
-0.34
-0.76
-1.01
-0.96
-0.60
0.00
0.70
1.36
1.87
2.17
2.30
2.35
2.44
2.64
2.95
3.30
3.57
3.63
3.46
3.07
2.52
1.87
1.17
0.46
-0.21
-0.79
-1.20
-1.39
-1.35
-1.11
-0.73
-0.31
0.00
0.11
-0.03
-0.38
-0.79
-1.12
-1.22
-1.07
-0.74
-0.34
0.05
0.43
0.81
1.21
1.59
1.84
1.92
1.82
1.65
1.52
1.52
1.62
1.69
1.63
1.37
1.00
0.69
0.59
0.80
1.28
1.90
2.50
2.99
3.33
3.53
3.65
3.70
3.71
3.71
3.77
3.98
4.39
5.03
5.84
6.67
7.38
7.87
8.07
8.04
7.83
7.47
6.91
6.06
4.83
3.27
1.54
-0.11
-1.49
-2.59
-3.55
-4.58
-5.73
-6.85
-7.62
-7.73
-7.11
-5.98
-4.78
-3.96
-3.72
-3.97
-4.38
-4.58
-4.33
-3.55
-2.32
-0.77
0.96
2.66
4.09
4.97
5.13
4.54
3.36
1.90
0.45
-0.81
-1.82
-2.56
-3.05
-3.26
-3.17
-2.84
-2.44
-2.17
-2.13
-2.27
-2.38
-2.17
-1.45
-0.26
1.14
2.33
2.88
2.55
1.33
-0.50
-2.49
-4.20
-5.34
-5.88
-5.95
-5.79
-5.58
-5.42
-5.30
-5.18
-5.04
-4.94
-4.96
-5.12
-5.36
-5.52
-5.42
-4.97
-4.23
-3.39
-2.65
-2.15
-1.83
-1.51
-0.98
-0.16
0.84
1.76
2.32
2.38
2.01
1.42
0.89
0.59
0.57
0.74
1.00
1.27
1.55
1.88
2.26
2.65
2.94
3.05
2.98
2.80
2.61
2.48
2.40
2.33
2.21
2.02
1.79
1.53
1.24
0.91
0.54
0.16
-0.14
-0.29
-0.28
-0.14
0.03
0.15
0.17
0.07
-0.09
-0.24
-0.33
-0.32
-0.25
-0.17
-0.17
-0.28
-0.50
-0.76
-0.96
-1.00
-0.83
-0.41
0.25
1.13
2.12
3.09
3.83
4.17
4.02
3.43
2.54
1.55
0.62
-0.12
-0.66
-1.02
-1.26
-1.44
-1.59
-1.69
-1.69
-1.56
-1.27
-0.88
-0.47
-0.15
0.02
0.07
0.05
0.02
0.01
-0.01
-0.06
-0.15
-0.20
-0.18
-0.05
0.12
0.22
0.18
0.01
-0.20
-0.30
-0.19
0.11
0.48
0.74
0.79
0.61
0.30
-0.01
-0.17
-0.11
0.11
0.40
0.64
0.74
0.69
0.50
0.23
-0.10
-0.48
-0.87
-1.22
-1.43
-1.40
-1.11
-0.62
-0.06
0.40
0.67
0.74
0.69
0.64
0.67
0.77
0.86
0.85
0.68
0.36
-0.03
-0.37
-0.59
-0.66
-0.61
-0.50
-0.39
-0.30
-0.25
-0.25
-0.30
-0.37
-0.43
-0.44
-0.37
-0.21
0.00
0.24
0.45
0.60
0.66
0.57
0.33
-0.05
-0.49
-0.91
-1.27
-1.56
-1.83
-2.13
-2.49
-2.86
-3.18
-3.42
-3.58
-3.68
-3.76
-3.83
-3.87
-3.86
-3.83
-3.81
-3.84
-3.93
-4.06
-4.21
-4.40
-4.65
-5.01
-5.50
-6.07
-6.65
-7.12
-7.39
-7.45
-7.36
-7.28
-7.41
-7.91
-8.86
-10.13
-11.51
-12.67
-13.31
-13.19
-12.20
-10.37
-7.89
-4.99
-1.99
0.87
3.38
5.40
6.89
7.98
8.97
10.30
12.39
15.36
18.87
22.14
24.18
24.22
22.12
18.39
14.05
10.10
7.20
5.48
4.68
4.45
4.56
4.92
5.51
6.20
6.70
6.69
5.98
4.65
3.04
1.64
0.84
0.76
1.20
1.78
2.12
2.08
1.74
1.36
1.20
1.36
1.76
2.19
2.47
2.48
2.25
1.84
1.33
0.79
0.24
-0.29
-0.75
-1.12
-1.42
-1.67
-1.91
-2.12
-2.28
-2.32
-2.23
-2.01
-1.72
-1.45
-1.26
-1.19
-1.26
-1.46
-1.71
-1.96
-2.09
-2.07
-1.93
-1.74
-1.61
-1.60
-1.64
-1.61
-1.39
-0.90
-0.20
0.52
1.08
1.34
1.28
1.02
0.69
0.41
0.19
0.01
-0.17
-0.32
-0.36
-0.24
0.03
0.30
0.39
0.13
-0.49
-1.32
-2.10
-2.58
-2.60
-2.17
-1.43
-0.57
0.20
0.75
1.02
1.03
0.80
0.44
0.04
-0.25
-0.34
-0.18
0.18
0.63
1.03
1.24
1.19
0.91
0.47
-0.00
-0.40
-0.65
-0.73
-0.64
-0.40
-0.06
0.32
0.66
0.86
0.88
0.72
0.44
0.14
-0.09
-0.21
-0.24
-0.26
-0.31
-0.44
-0.65
-0.88
-1.10
-1.26
-1.32
-1.26
-1.09
-0.86
-0.65
-0.55
-0.64
-0.91
-1.28
-1.61
-1.72
-1.54
-1.08
-0.44
0.22
0.77
1.15
1.34
1.39
1.30
1.09
0.76
0.38
0.03
-0.17
-0.19
-0.08
0.08
0.19
0.23
0.23
0.21
0.21
0.16
0.04
-0.15
-0.34
-0.44
-0.39
-0.19
0.07
0.28
0.33
0.20
-0.06
-0.38
-0.68
-0.89
-0.95
-0.84
-0.56
-0.14
0.35
0.87
1.36
1.77
2.07
2.27
2.38
2.43
2.45
2.41
2.26
1.94
1.44
0.83
0.24
-0.19
-0.41
-0.46
-0.49
-0.63
-0.92
-1.26
-1.54
-1.64
-1.54
-1.31
-1.04
-0.78
-0.52
-0.24
0.04
0.25
0.32
0.18
-0.13
-0.52
-0.87
-1.06
-1.04
-0.85
-0.56
-0.25
-0.01
0.12
0.12
0.05
-0.01
-0.02
0.04
0.15
0.26
0.35
0.40
0.43
0.45
0.42
0.34
0.19
0.03
-0.07
-0.07
0.04
0.20
0.34
0.37
0.26
0.04
-0.23
-0.49
-0.69
-0.81
-0.86
-0.86
-0.84
-0.80
-0.75
-0.66
-0.49
-0.24
0.09
0.45
0.77
1.01
1.14
1.17
1.12
1.04
0.95
0.91
0.94
1.04
1.16
1.21
1.09
0.74
0.21
-0.38
-0.86
-1.12
-1.11
-0.93
-0.70
-0.51
-0.40
-0.34
-0.28
-0.18
-0.09
-0.03
-0.06
-0.16
-0.31
-0.44
-0.54
-0.65
-0.84
-1.15
-1.52
-1.85
-1.97
-1.82
-1.40
-0.85
-0.31
0.15
0.54
0.92
1.32
1.64
1.74
1.50
0.95
0.27
-0.31
-0.57
-0.48
-0.14
0.28
0.62
0.83
0.92
0.92
0.88
0.76
0.59
0.39
0.20
0.08
0.02
-0.02
-0.09
-0.20
-0.34
-0.44
-0.43
-0.29
-0.03
0.28
0.56
0.75
0.82
0.76
0.63
0.44
0.24
0.04
-0.11
-0.18
-0.16
-0.07
0.07
0.23
0.42
0.65
0.93
1.20
1.37
1.32
0.98
0.44
-0.15
-0.60
-0.78
-0.74
-0.63
-0.62
-0.79
-1.09
-1.39
-1.60
-1.66
-1.62
-1.51
-1.37
-1.17
-0.86
-0.46
-0.01
0.41
0.75
0.98
1.07
0.99
0.71
0.23
-0.34
-0.81
-0.99
-0.75
-0.16
0.58
1.20
1.51
1.43
1.11
0.74
0.52
0.49
0.57
0.59
0.44
0.14
-0.20
-0.41
-0.40
-0.24
-0.07
-0.04
-0.22
-0.54
-0.86
-1.04
-1.04
-0.92
-0.80
-0.78
-0.87
-1.01
-1.07
-0.93
-0.58
-0.10
0.35
0.60
0.56
0.33
0.06
-0.06
0.04
0.29
0.54
0.64
0.57
0.40
0.22
0.12
0.08
0.05
0.00
-0.03
0.02
0.22
0.52
0.82
1.01
1.02
0.90
0.74
0.66
0.66
0.69
0.67
0.51
0.25
-0.04
-0.23
-0.28
-0.19
-0.03
0.09
0.11
-0.01
-0.24
-0.52
-0.77
-0.92
-0.94
-0.85
-0.72
-0.59
-0.50
-0.43
-0.31
-0.13
0.10
0.31
0.40
0.34
0.16
-0.08
-0.30
-0.44
-0.51
-0.53
-0.51
-0.45
-0.36
-0.25
-0.18
-0.20
-0.31
-0.43
-0.47
-0.33
-0.03
0.34
0.67
0.86
0.91
0.87
0.80
0.73
0.65
0.50
0.29
0.05
-0.11
-0.14
-0.02
0.12
0.19
0.09
-0.15
-0.40
-0.51
-0.41
-0.13
0.19
0.43
0.51
0.47
0.41
0.40
0.44
0.50
0.49
0.37
0.19
-0.00
-0.13
-0.18
-0.16
-0.11
-0.03
0.07
0.19
0.29
0.32
0.22
0.01
-0.22
-0.38
-0.38
-0.25
-0.03
0.18
0.31
0.34
0.28
0.14
-0.04
-0.26
-0.45
-0.53
-0.47
-0.25
0.03
0.26
0.35
0.28
0.10
-0.11
-0.28
-0.42
-0.53
-0.62
-0.64
-0.54
-0.28
0.10
0.48
0.73
0.76
0.57
0.22
-0.16
-0.47
-0.62
-0.61
-0.47
-0.27
-0.08
0.07
0.15
0.17
0.15
0.10
0.03
-0.04
-0.04
0.08
0.34
0.73
1.11
1.32
1.26
0.90
0.35
-0.19
-0.56
-0.68
-0.58
-0.36
-0.14
0.03
0.12
0.13
0.06
-0.08
-0.30
-0.55
-0.76
-0.86
-0.80
-0.55
-0.18
0.26
0.66
0.95
1.09
1.05
0.84
0.53
0.19
-0.10
-0.28
-0.32
-0.22
-0.02
0.22
0.47
0.68
0.81
0.84
0.71
0.43
0.04
-0.32
-0.50
-0.34
0.20
0.95
1.66
2.04
1.91
1.27
0.29
-0.80
-1.82
-2.67
-3.38
-3.97
-4.46
-4.75
-4.72
-4.29
-3.47
-2.42
-1.36
-0.51
0.00
0.18
0.13
0.00
-0.12
-0.23
-0.33
-0.44
-0.51
-0.43
-0.07
0.57
1.42
2.28
2.93
3.24
3.17
2.80
2.30
1.88
1.70
1.78
2.06
2.35
2.50
2.40
2.01
1.39
0.60
-0.23
-1.00
-1.59
-1.96
-2.15
-2.28
-2.55
-3.09
-3.88
-4.74
-5.38
-5.53
-5.13
-4.27
-3.21
-2.17
-1.29
-0.63
-0.21
-0.12
-0.49
-1.37
-2.65
-4.06
-5.22
-5.82
-5.82
-5.47
-5.20
-5.43
-6.30
-7.60
-8.87
-9.67
-9.86
-9.70
-9.75
-10.54
-12.30
-14.74
-17.24
-19.14
-20.09
-20.21
-20.03
-20.22
-21.30
-23.66
-27.56
-33.00
-39.29
-44.70
-46.67
-42.67
-31.54
-14.42
5.28
23.14
35.63
41.45
41.75
39.11
35.93
33.39
31.32
29.04
26.19
23.20
20.90
19.91
20.13
20.81
21.04
20.13
18.02
15.27
12.67
10.91
10.27
10.50
11.02
11.16
10.49
8.98
7.03
5.23
4.08
3.78
4.17
4.78
5.12
4.86
3.97
2.73
1.52
0.70
0.40
0.55
0.89
1.15
1.14
0.84
0.36
-0.11
-0.40
-0.46
-0.32
-0.10
0.08
0.12
0.02
-0.12
-0.21
-0.17
-0.03
0.10
0.10
-0.08
-0.37
-0.66
-0.80
-0.78
-0.65
-0.53
-0.51
-0.57
-0.60
-0.50
-0.25
0.10
0.39
0.52
0.44
0.26
0.08
-0.01
-0.01
0.02
-0.01
-0.16
-0.41
-0.67
-0.82
-0.76
-0.46
0.00
0.46
0.76
0.79
0.56
0.20
-0.15
-0.36
-0.40
-0.31
-0.14
0.07
0.29
0.50
0.63
0.60
0.40
0.08
-0.25
-0.46
-0.50
-0.37
-0.15
0.05
0.17
0.18
0.08
-0.07
-0.24
-0.36
-0.38
-0.27
-0.05
0.20
0.40
0.51
0.50
0.42
0.32
0.21
0.09
-0.09
-0.33
-0.61
-0.84
-0.97
-0.92
-0.71
-0.38
-0.06
0.17
0.24
0.18
0.08
0.04
0.17
0.48
0.88
1.25
1.45
1.43
1.21
0.87
0.49
0.12
-0.19
-0.45
-0.63
-0.71
-0.67
-0.48
-0.15
0.25
0.61
0.83
0.83
0.65
0.38
0.15
0.01
-0.03
-0.04
-0.10
-0.20
-0.27
-0.22
-0.02
0.27
0.53
0.63
0.52
0.24
-0.11
-0.38
-0.52
-0.49
-0.36
-0.21
-0.13
-0.16
-0.27
-0.38
-0.45
-0.48
-0.52
-0.63
-0.82
-1.03
-1.12
-0.98
-0.59
-0.07
0.44
0.79
0.89
0.78
0.50
0.14
-0.23
-0.52
-0.61
-0.45
-0.04
0.49
0.97
1.22
1.17
0.91
0.59
0.36
0.25
0.22
0.16
0.04
-0.14
-0.29
-0.34
-0.30
-0.20
-0.05
0.14
0.40
0.69
0.94
1.00
0.76
0.21
-0.49
-1.11
-1.43
-1.37
-1.05
-0.66
-0.40
-0.35
-0.42
-0.50
-0.45
-0.25
0.03
0.30
0.48
0.56
0.55
0.53
0.53
0.56
0.60
0.61
0.55
0.39
0.17
-0.05
-0.18
-0.20
-0.09
0.08
0.24
0.34
0.35
0.31
0.22
0.10
-0.06
-0.22
-0.34
-0.39
-0.35
-0.28
-0.21
-0.20
-0.23
-0.29
-0.31
-0.28
-0.18
-0.03
0.12
0.24
0.25
0.12
-0.16
-0.53
-0.83
-0.95
-0.82
-0.50
-0.12
0.20
0.40
0.51
0.58
0.66
0.73
0.75
0.67
0.53
0.38
0.28
0.24
0.25
0.28
0.32
0.42
0.57
0.72
0.77
0.62
0.23
-0.31
-0.80
-1.08
-1.08
-0.88
-0.67
-0.61
-0.75
-0.99
-1.14
-1.04
-0.70
-0.27
0.05
0.13
-0.03
-0.32
-0.60
-0.80
-0.88
-0.88
-0.82
-0.68
-0.46
-0.20
0.03
0.15
0.12
0.03
-0.03
0.07
0.36
0.77
1.14
1.34
1.28
0.99
0.56
0.16
-0.09
-0.14
-0.05
0.06
0.07
-0.07
-0.29
-0.48
-0.50
-0.32
-0.01
0.32
0.56
0.70
0.77
0.82
0.85
0.81
0.62
0.33
0.05
-0.03
0.19
0.65
1.15
1.46
1.40
0.99
0.40
-0.18
-0.59
-0.77
-0.71
-0.48
-0.14
0.22
0.50
0.61
0.50
0.21
-0.16
-0.50
-0.75
-0.88
-0.89
-0.79
-0.57
-0.26
0.06
0.28
0.33
0.17
-0.10
-0.39
-0.58
-0.64
-0.61
-0.57
-0.54
-0.53
-0.49
-0.38
-0.18
0.09
0.37
0.61
0.78
0.86
0.85
0.75
0.59
0.36
0.09
-0.18
-0.41
-0.58
-0.69
-0.73
-0.71
-0.67
-0.63
-0.60
-0.59
-0.60
-0.59
-0.53
-0.40
-0.20
0.04
0.29
0.49
0.60
0.60
0.51
0.37
0.23
0.12
0.06
0.05
0.09
0.17
0.26
0.31
0.24
0.03
-0.29
-0.61
-0.77
-0.66
-0.27
0.29
0.86
1.30
1.55
1.60
1.50
1.32
1.09
0.87
0.71
0.62
0.59
0.57
0.51
0.39
0.25
0.08
-0.08
-0.25
-0.44
-0.60
-0.69
-0.67
-0.56
-0.41
-0.29
-0.24
-0.27
-0.35
-0.44
-0.55
-0.66
-0.76
-0.80
-0.74
-0.54
-0.22
0.12
0.37
0.41
0.24
-0.07
-0.37
-0.51
-0.41
-0.15
0.13
0.28
0.22
0.02
-0.20
-0.29
-0.22
-0.05
0.10
0.11
-0.01
-0.18
-0.28
-0.22
-0.04
0.17
0.30
0.32
0.28
0.28
0.36
0.51
0.59
0.50
0.20
-0.26
-0.74
-1.08
-1.19
-1.02
-0.65
-0.20
0.18
0.35
0.25
-0.09
-0.55
-0.93
-1.09
-0.98
-0.65
-0.27
0.04
0.16
0.11
-0.01
-0.08
-0.02
0.19
0.50
0.83
1.08
1.24
1.32
1.37
1.40
1.36
1.21
0.94
0.59
0.29
0.12
0.12
0.23
0.32
0.30
0.14
-0.12
-0.38
-0.57
-0.66
-0.68
-0.66
-0.62
-0.54
-0.42
-0.27
-0.14
-0.08
-0.11
-0.23
-0.39
-0.53
-0.60
-0.61
-0.60
-0.60
-0.63
-0.65
-0.66
-0.62
-0.54
-0.44
-0.33
-0.16
0.07
0.37
0.70
0.99
1.14
1.12
0.96
0.75
0.58
0.50
0.48
0.46
0.34
0.12
-0.14
-0.31
-0.31
-0.14
0.09
0.21
0.13
-0.18
-0.60
-1.00
-1.28
-1.44
-1.54
-1.63
-1.71
-1.69
-1.52
-1.13
-0.58
0.03
0.57
0.93
1.07
0.98
0.74
0.47
0.30
0.33
0.54
0.85
1.14
1.30
1.33
1.27
1.20
1.14
1.05
0.88
0.61
0.31
0.09
0.01
0.06
0.15
0.19
0.12
-0.00
-0.09
-0.07
0.05
0.23
0.38
0.46
0.49
0.50
0.49
0.45
0.30
0.04
-0.31
-0.63
-0.81
-0.78
-0.55
-0.22
0.08
0.28
0.34
0.26
0.07
-0.23
-0.64
-1.08
-1.42
-1.53
-1.35
-0.95
-0.48
-0.13
0.00
-0.07
-0.23
-0.34
-0.31
-0.14
0.12
0.40
0.66
0.85
0.96
0.95
0.80
0.54
0.24
-0.01
-0.15
-0.15
-0.11
-0.11
-0.23
-0.48
-0.74
-0.89
-0.81
-0.54
-0.17
0.14
0.33
0.40
0.45
0.51
0.56
0.52
0.34
0.07
-0.16
-0.20
-0.02
0.27
0.48
0.47
0.19
-0.22
-0.57
-0.71
-0.61
-0.37
-0.12
0.03
0.04
-0.06
-0.20
-0.34
-0.47
-0.58
-0.66
-0.66
-0.57
-0.37
-0.09
0.21
0.44
0.56
0.57
0.55
0.57
0.66
0.80
0.89
0.85
0.64
0.33
0.01
-0.21
-0.27
-0.20
-0.08
0.01
-0.01
-0.19
-0.49
-0.82
-1.06
-1.11
-0.95
-0.61
-0.24
0.05
0.15
0.07
-0.10
-0.22
-0.21
-0.05
0.19
0.42
0.60
0.67
0.66
0.60
0.50
0.37
0.24
0.14
0.10
0.18
0.39
0.69
0.98
1.13
1.04
0.68
0.10
-0.55
-1.10
-1.42
-1.42
-1.13
-0.63
-0.08
0.37
0.63
0.70
0.63
0.50
0.37
0.23
0.08
-0.07
-0.20
-0.23
-0.11
0.15
0.45
0.70
0.81
0.80
0.75
0.75
0.84
0.99
1.07
0.98
0.66
0.18
-0.35
-0.79
-1.05
-1.15
-1.17
-1.19
-1.24
-1.32
-1.35
-1.28
-1.10
-0.85
-0.58
-0.32
-0.07
0.18
0.45
0.68
0.84
0.87
0.77
0.60
0.41
0.26
0.14
0.02
-0.13
-0.31
-0.46
-0.52
-0.45
-0.30
-0.14
-0.03
0.00
-0.02
-0.02
0.03
0.15
0.30
0.47
0.66
0.87
1.09
1.25
1.25
1.02
0.59
0.12
-0.22
-0.30
-0.13
0.13
0.29
0.24
0.05
-0.16
-0.21
-0.10
0.06
0.13
0.01
-0.26
-0.54
-0.65
-0.55
-0.28
0.00
0.14
0.07
-0.17
-0.46
-0.65
-0.62
-0.36
0.05
0.47
0.75
0.82
0.66
0.36
0.01
-0.29
-0.53
-0.70
-0.83
-0.89
-0.82
-0.62
-0.31
0.00
0.20
0.18
-0.06
-0.43
-0.79
-1.03
-1.08
-0.96
-0.73
-0.47
-0.26
-0.18
-0.24
-0.44
-0.67
-0.80
-0.68
-0.25
0.39
1.04
1.49
1.56
1.25
0.70
0.14
-0.23
-0.31
-0.13
0.17
0.44
0.59
0.59
0.52
0.44
0.40
0.38
0.35
0.27
0.14
-0.02
-0.15
-0.19
-0.13
-0.02
0.10
0.18
0.20
0.13
-0.04
-0.31
-0.64
-0.98
-1.27
-1.42
-1.39
-1.19
-0.88
-0.52
-0.18
0.12
0.39
0.63
0.80
0.85
0.77
0.59
0.41
0.34
0.43
0.63
0.85
0.98
0.96
0.82
0.64
0.47
0.30
0.09
-0.19
-0.47
-0.63
-0.56
-0.22
0.27
0.74
0.98
0.91
0.57
0.11
-0.30
-0.54
-0.62
-0.58
-0.50
-0.41
-0.31
-0.19
-0.08
0.02
0.12
0.22
0.36
0.55
0.76
0.88
0.85
0.64
0.30
-0.05
-0.32
-0.45
-0.47
-0.45
-0.45
-0.48
-0.49
-0.47
-0.42
-0.35
-0.30
-0.29
-0.28
-0.23
-0.11
0.05
0.21
0.29
0.28
0.22
0.21
0.31
0.53
0.77
0.92
0.89
0.67
0.36
0.06
-0.18
-0.40
-0.63
-0.90
-1.14
-1.23
-1.10
-0.78
-0.37
-0.04
0.13
0.18
0.19
0.25
0.38
0.52
0.57
0.50
0.33
0.15
0.02
-0.04
-0.06
-0.09
-0.19
-0.33
-0.45
-0.47
-0.35
-0.12
0.08
0.11
-0.08
-0.47
-0.87
-1.12
-1.10
-0.85
-0.51
-0.24
-0.10
-0.01
0.16
0.48
0.91
1.26
1.36
1.11
0.60
0.04
-0.33
-0.43
-0.31
-0.10
0.03
0.03
-0.05
-0.11
-0.08
0.03
0.13
0.14
0.01
-0.22
-0.49
-0.71
-0.84
-0.88
-0.85
-0.76
-0.62
-0.43
-0.17
0.14
0.51
0.90
1.26
1.52
1.63
1.56
1.33
1.00
0.68
0.46
0.36
0.37
0.42
0.48
0.52
0.53
0.52
0.46
0.33
0.12
-0.15
-0.43
-0.68
-0.85
-0.92
-0.91
-0.81
-0.65
-0.44
-0.23
-0.12
-0.18
-0.44
-0.82
-1.18
-1.38
-1.33
-1.09
-0.79
-0.53
-0.37
-0.25
-0.08
0.18
0.48
0.73
0.85
0.81
0.71
0.66
0.71
0.86
1.03
1.14
1.14
1.04
0.89
0.70
0.51
0.29
0.06
-0.14
-0.26
-0.24
-0.10
0.15
0.42
0.62
0.67
0.54
0.27
-0.09
-0.43
-0.66
-0.72
-0.66
-0.54
-0.45
-0.44
-0.50
-0.59
-0.66
-0.68
-0.66
-0.60
-0.51
-0.39
-0.21
0.01
0.24
0.45
0.56
0.54
0.38
0.12
-0.17
-0.39
-0.43
-0.25
0.09
0.45
0.69
0.70
0.51
0.20
-0.07
-0.23
-0.26
-0.22
-0.17
-0.15
-0.13
-0.05
0.09
0.27
0.44
0.54
0.53
0.43
0.28
0.10
-0.07
-0.19
-0.24
-0.21
-0.10
0.08
0.26
0.38
0.41
0.35
0.24
0.12
-0.01
-0.16
-0.37
-0.67
-1.02
-1.33
-1.51
-1.50
-1.33
-1.05
-0.74
-0.47
-0.23
-0.00
0.24
0.50
0.72
0.83
0.80
0.66
0.48
0.35
0.33
0.37
0.40
0.31
0.07
-0.23
-0.48
-0.54
-0.37
-0.04
0.31
0.58
0.70
0.71
0.66
0.60
0.55
0.48
0.41
0.31
0.22
0.16
0.12
0.08
0.01
-0.13
-0.35
-0.59
-0.78
-0.83
-0.72
-0.49
-0.24
-0.09
-0.10
-0.24
-0.44
-0.62
-0.76
-0.84
-0.90
-0.89
-0.76
-0.48
-0.06
0.38
0.71
0.87
0.87
0.77
0.70
0.70
0.76
0.80
0.76
0.65
0.52
0.46
0.51
0.70
0.97
1.21
1.32
1.24
0.97
0.58
0.16
-0.22
-0.56
-0.84
-1.08
-1.25
-1.32
-1.22
-0.94
-0.51
-0.03
0.39
0.68
0.79
0.77
0.63
0.41
0.12
-0.23
-0.59
-0.87
-1.02
-1.04
-0.97
-0.92
-0.94
-1.01
-1.01
-0.82
-0.37
0.22
0.78
1.10
1.08
0.82
0.48
0.26
0.21
0.26
0.27
0.13
-0.10
-0.26
-0.22
0.07
0.44
0.66
0.55
0.10
-0.48
-0.94
-1.07
-0.87
-0.45
-0.03
0.27
0.42
0.45
0.40
0.30
0.13
-0.07
-0.24
-0.33
-0.29
-0.15
0.05
0.27
0.51
0.80
1.08
1.30
1.34
1.19
0.89
0.57
0.35
0.24
0.19
0.07
-0.15
-0.44
-0.69
-0.81
-0.76
-0.63
-0.53
-0.53
-0.64
-0.77
-0.86
-0.85
-0.77
-0.66
-0.60
-0.60
-0.62
-0.60
-0.47
-0.26
-0.01
0.19
0.26
0.22
0.12
0.05
0.06
0.15
0.24
0.29
0.28
0.23
0.19
0.22
0.33
0.47
0.56
0.51
0.32
0.00
-0.33
-0.60
-0.74
-0.76
-0.69
-0.58
-0.44
-0.24
0.01
0.24
0.36
0.30
0.09
-0.16
-0.28
-0.18
0.13
0.48
0.72
0.75
0.64
0.50
0.48
0.62
0.86
1.07
1.14
1.04
0.81
0.52
0.24
0.01
-0.13
-0.17
-0.11
0.03
0.20
0.33
0.34
0.23
-0.02
-0.32
-0.62
-0.85
-0.98
-1.04
-1.07
-1.07
-1.04
-0.91
-0.66
-0.32
0.01
0.20
0.19
0.01
-0.20
-0.30
-0.22
0.02
0.28
0.46
0.51
0.47
0.40
0.35
0.30
0.26
0.23
0.26
0.39
0.58
0.70
0.63
0.32
-0.17
-0.67
-1.02
-1.14
-1.04
-0.83
-0.60
-0.37
-0.16
0.06
0.24
0.33
0.28
0.11
-0.11
-0.31
-0.43
-0.46
-0.40
-0.24
0.03
0.41
0.82
1.16
1.33
1.27
1.01
0.63
0.24
-0.09
-0.36
-0.56
-0.69
-0.71
-0.61
-0.42
-0.17
0.07
0.28
0.44
0.56
0.62
0.60
0.48
0.28
0.08
-0.03
0.00
0.19
0.45
0.68
0.77
0.69
0.47
0.18
-0.09
-0.29
-0.38
-0.35
-0.22
-0.05
0.10
0.16
0.07
-0.15
-0.44
-0.70
-0.84
-0.83
-0.70
-0.52
-0.37
-0.30
-0.30
-0.33
-0.33
-0.26
-0.10
0.14
0.39
0.58
0.64
0.55
0.35
0.12
-0.05
-0.12
-0.09
-0.05
-0.05
-0.14
-0.27
-0.38
-0.40
-0.32
-0.19
-0.07
-0.04
-0.09
-0.18
-0.27
-0.31
-0.28
-0.19
-0.10
-0.01
0.07
0.18
0.35
0.57
0.79
0.95
0.98
0.85
0.65
0.47
0.39
0.45
0.55
0.60
0.49
0.21
-0.17
-0.51
-0.71
-0.73
-0.64
-0.52
-0.44
-0.43
-0.45
-0.44
-0.37
-0.22
-0.05
0.10
0.19
0.23
0.24
0.26
0.30
0.33
0.30
0.16
-0.09
-0.40
-0.68
-0.83
-0.82
-0.65
-0.42
-0.19
-0.03
0.06
0.12
0.20
0.30
0.43
0.55
0.66
0.74
0.82
0.91
0.99
1.03
1.01
0.91
0.79
0.70
0.68
0.68
0.63
0.44
0.10
-0.31
-0.65
-0.81
-0.81
-0.73
-0.72
-0.87
-1.16
-1.47
-1.69
-1.74
-1.66
-1.52
-1.43
-1.40
-1.41
-1.37
-1.21
-0.88
-0.41
0.12
0.58
0.88
0.97
0.87
0.67
0.44
0.25
0.13
0.11
0.20
0.40
0.69
0.98
1.18
1.23
1.13
0.95
0.80
0.75
0.80
0.88
0.87
0.74
0.50
0.22
-0.03
-0.21
-0.31
-0.36
-0.37
-0.38
-0.41
-0.49
-0.64
-0.84
-1.07
-1.22
-1.24
-1.07
-0.75
-0.37
-0.02
0.23
0.37
0.49
0.62
0.80
0.99
1.11
1.10
0.99
0.87
0.83
0.95
1.17
1.39
1.45
1.30
0.96
0.52
0.13
-0.13
-0.26
-0.32
-0.39
-0.51
-0.66
-0.77
-0.79
-0.68
-0.50
-0.35
-0.31
-0.39
-0.56
-0.72
-0.76
-0.66
-0.49
-0.35
-0.32
-0.42
-0.60
-0.76
-0.85
-0.86
-0.84
-0.85
-0.87
-0.89
-0.82
-0.65
-0.38
-0.10
0.11
0.22
0.23
0.21
0.23
0.31
0.42
0.48
0.43
0.30
0.15
0.11
0.26
0.57
0.94
1.23
1.33
1.24
1.05
0.83
0.64
0.45
0.20
-0.15
-0.53
-0.81
-0.87
-0.64
-0.20
0.29
0.68
0.86
0.83
0.65
0.41
0.18
-0.01
-0.11
-0.12
-0.05
0.09
0.20
0.21
0.07
-0.17
-0.42
-0.56
-0.53
-0.38
-0.19
-0.04
0.03
0.07
0.11
0.16
0.18
0.11
-0.06
-0.34
-0.64
-0.88
-1.00
-0.98
-0.87
-0.70
-0.50
-0.30
-0.12
0.00
0.05
-0.00
-0.13
-0.29
-0.38
-0.36
-0.19
0.07
0.34
0.53
0.59
0.55
0.47
0.39
0.30
0.16
-0.04
-0.26
-0.43
-0.44
-0.26
0.03
0.30
0.40
0.30
0.06
-0.17
-0.24
-0.10
0.22
0.61
0.95
1.16
1.25
1.23
1.14
1.00
0.81
0.56
0.25
-0.05
-0.31
-0.42
-0.34
-0.09
0.25
0.54
0.68
0.63
0.43
0.15
-0.13
-0.37
-0.59
-0.79
-0.96
-1.07
-1.06
-0.94
-0.73
-0.51
-0.35
-0.29
-0.28
-0.27
-0.22
-0.12
0.02
0.12
0.16
0.12
0.01
-0.11
-0.20
-0.22
-0.15
0.01
0.21
0.40
0.52
0.54
0.44
0.26
0.04
-0.20
-0.41
-0.59
-0.70
-0.73
-0.67
-0.51
-0.30
-0.08
0.12
0.28
0.41
0.50
0.54
0.48
0.31
0.07
-0.15
-0.24
-0.18
0.02
0.26
0.42
0.48
0.45
0.40
0.38
0.35
0.27
0.09
-0.13
-0.28
-0.25
-0.00
0.37
0.70
0.87
0.82
0.60
0.33
0.10
-0.05
-0.14
-0.18
-0.19
-0.16
-0.08
0.02
0.07
0.03
-0.15
-0.43
-0.72
-0.90
-0.88
-0.62
-0.16
0.37
0.81
1.04
1.01
0.78
0.47
0.19
-0.00
-0.12
-0.19
-0.24
-0.31
-0.40
-0.51
-0.65
-0.83
-1.00
-1.12
-1.13
-0.99
-0.74
-0.45
-0.24
-0.16
-0.21
-0.36
-0.49
-0.50
-0.32
0.02
0.45
0.83
1.04
1.06
0.93
0.75
0.63
0.57
0.55
0.47
0.27
-0.02
-0.37
-0.68
-0.89
-0.98
-0.92
-0.75
-0.47
-0.14
0.21
0.52
0.72
0.76
0.63
0.38
0.07
-0.20
-0.36
-0.36
-0.24
-0.04
0.17
0.35
0.47
0.51
0.45
0.29
0.04
-0.22
-0.39
-0.40
-0.23
0.05
0.32
0.49
0.54
0.51
0.53
0.62
0.76
0.81
0.68
0.34
-0.16
-0.66
-1.02
-1.15
-1.05
-0.80
-0.50
-0.22
0.00
0.15
0.23
0.27
0.25
0.18
0.07
-0.06
-0.16
-0.15
-0.02
0.21
0.48
0.70
0.79
0.71
0.52
0.27
0.04
-0.08
-0.07
0.07
0.30
0.54
0.72
0.78
0.71
0.54
0.36
0.20
0.08
0.01
-0.03
-0.04
0.01
0.07
0.10
0.05
-0.10
-0.32
-0.56
-0.73
-0.82
-0.84
-0.81
-0.76
-0.67
-0.51
-0.32
-0.15
-0.06
-0.08
-0.13
-0.13
-0.02
0.19
0.40
0.47
0.32
-0.04
-0.48
-0.88
-1.12
-1.21
-1.17
-1.05
-0.84
-0.49
0.03
0.64
1.20
1.52
1.50
1.18
0.73
0.38
0.23
0.28
0.39
0.43
0.36
0.21
0.05
-0.06
-0.11
-0.14
-0.14
-0.11
-0.02
0.14
0.33
0.43
0.39
0.18
-0.12
-0.40
-0.57
-0.58
-0.47
-0.31
-0.12
0.06
0.26
0.47
0.65
0.74
0.70
0.51
0.20
-0.18
-0.56
-0.90
-1.15
-1.25
-1.16
-0.85
-0.39
0.09
0.45
0.58
0.45
0.13
-0.28
-0.66
-0.94
-1.06
-1.04
-0.90
-0.71
-0.53
-0.42
-0.39
-0.40
-0.40
-0.32
-0.10
0.23
0.59
0.89
1.08
1.10
0.99
0.79
0.59
0.43
0.36
0.39
0.48
0.59
0.66
0.64
0.53
0.34
0.16
0.03
-0.00
0.04
0.10
0.15
0.19
0.23
0.28
0.32
0.29
0.17
-0.04
-0.25
-0.36
-0.30
-0.09
0.17
0.35
0.37
0.23
0.03
-0.13
-0.17
-0.14
-0.12
-0.18
-0.33
-0.51
-0.60
-0.48
-0.17
0.21
0.49
0.53
0.28
-0.14
-0.57
-0.85
-0.92
-0.80
-0.59
-0.36
-0.19
-0.08
-0.04
-0.07
-0.14
-0.23
-0.31
-0.35
-0.34
-0.29
-0.21
-0.10
0.03
0.20
0.36
0.47
0.49
0.44
0.38
0.40
0.56
0.82
1.06
1.14
0.96
0.56
0.07
-0.30
-0.43
-0.31
-0.08
0.10
0.06
-0.19
-0.54
-0.81
-0.85
-0.64
-0.25
0.16
0.49
0.70
0.78
0.75
0.60
0.30
-0.11
-0.54
-0.87
-0.97
-0.81
-0.42
0.07
0.51
0.81
0.89
0.77
0.47
0.06
-0.38
-0.72
-0.84
-0.68
-0.27
0.25
0.70
0.91
0.84
0.55
0.20
-0.03
-0.07
0.04
0.21
0.31
0.27
0.09
-0.16
-0.45
-0.72
-0.95
-1.10
-1.12
-0.97
-0.66
-0.21
0.29
0.73
1.02
1.11
1.00
0.69
0.26
-0.21
-0.63
-0.89
-0.95
-0.81
-0.53
-0.18
0.12
0.29
0.29
0.12
-0.16
-0.46
-0.66
-0.69
-0.50
-0.14
0.30
0.69
0.92
0.95
0.80
0.55
0.27
0.04
-0.10
-0.15
-0.16
-0.15
-0.12
-0.06
0.09
0.37
0.72
1.06
1.25
1.19
0.89
0.41
-0.07
-0.40
-0.49
-0.37
-0.12
0.10
0.19
0.11
-0.13
-0.45
-0.76
-0.97
-1.03
-0.93
-0.68
-0.36
-0.03
0.27
0.48
0.59
0.62
0.58
0.50
0.39
0.31
0.28
0.31
0.39
0.45
0.45
0.34
0.15
-0.10
-0.36
-0.58
-0.75
-0.85
-0.88
-0.81
-0.63
-0.35
-0.03
0.26
0.43
0.42
0.24
-0.00
-0.21
-0.30
-0.26
-0.16
-0.10
-0.11
-0.19
-0.23
-0.18
-0.06
0.04
0.00
-0.21
-0.53
-0.82
-0.94
-0.83
-0.53
-0.16
0.17
0.41
0.52
0.50
0.36
0.12
-0.16
-0.42
-0.57
-0.55
-0.36
-0.08
0.22
0.44
0.53
0.47
0.27
-0.03
-0.32
-0.53
-0.56
-0.40
-0.07
0.31
0.66
0.88
0.93
0.87
0.74
0.60
0.48
0.38
0.32
0.31
0.36
0.49
0.67
0.81
0.83
0.67
0.33
-0.09
-0.45
-0.62
-0.57
-0.37
-0.15
-0.05
-0.12
-0.33
-0.54
-0.62
-0.53
-0.29
-0.02
0.16
0.20
0.11
-0.05
-0.19
-0.28
-0.29
-0.23
-0.09
0.13
0.45
0.81
1.15
1.37
1.40
1.23
0.91
0.53
0.15
-0.16
-0.40
-0.60
-0.80
-1.02
-1.23
-1.40
-1.49
-1.49
-1.42
-1.29
-1.12
-0.91
-0.64
-0.33
-0.01
0.25
0.35
0.30
0.14
0.00
0.00
0.20
0.54
0.89
1.12
1.14
0.97
0.69
0.40
0.19
0.09
0.10
0.19
0.31
0.43
0.54
0.61
0.62
0.52
0.29
-0.07
-0.50
-0.87
-1.08
-1.07
-0.87
-0.61
-0.41
-0.38
-0.48
-0.64
-0.74
-0.70
-0.55
-0.35
-0.20
-0.14
-0.17
-0.26
-0.35
-0.41
-0.42
-0.36
-0.25
-0.09
0.09
0.28
0.43
0.50
0.47
0.37
0.21
0.08
0.01
0.00
0.01
-0.04
-0.20
-0.50
-0.87
-1.22
-1.49
-1.65
-1.72
-1.76
-1.81
-1.90
-2.00
-2.11
-2.20
-2.30
-2.39
-2.48
-2.55
-2.62
-2.71
-2.86
-3.10
-3.44
-3.82
-4.15
-4.33
-4.32
-4.15
-3.89
-3.65
-3.47
-3.35
-3.23
-3.04
-2.82
-2.71
-2.90
-3.47
-4.28
-4.90
-4.76
-3.48
-1.06
2.15
5.62
8.97
12.12
15.10
17.73
19.50
19.74
18.09
14.88
11.12
7.97
6.12
5.42
5.15
4.55
3.42
2.16
1.42
1.57
2.35
3.12
3.28
2.71
1.79
1.18
1.39
2.50
4.24
6.17
7.91
9.28
10.25
10.92
11.43
11.92
12.52
13.34
14.40
15.71
17.16
18.58
19.74
20.43
20.55
20.20
19.63
19.17
19.01
19.08
19.03
18.40
16.93
14.74
12.30
10.14
8.42
6.76
4.37
0.53
-4.97
-11.64
-18.55
-24.88
-30.27
-34.89
-38.98
-42.40
-44.50
-44.33
-41.28
-35.53
-28.11
-20.47
-13.92
-9.19
-6.32
-4.87
-4.29
-4.14
-4.23
-4.52
-5.02
-5.70
-6.49
-7.27
-7.89
-8.29
-8.48
-8.56
-8.66
-8.82
-8.96
-8.94
-8.63
-8.07
-7.45
-7.12
-7.31
-8.05
-9.11
-10.07
-10.57
-10.49
-10.03
-9.58
-9.48
-9.84
-10.41
-10.74
-10.41
-9.28
-7.66
-6.18
-5.63
-6.62
-9.35
-13.52
-18.31
-22.56
-25.07
-24.99
-22.08
-16.94
-10.72
-4.77
-0.05
3.11
5.09
6.55
8.01
9.53
10.76
11.21
10.71
9.50
8.21
7.43
7.48
8.20
9.19
10.03
10.59
11.05
11.75
12.91
14.53
16.33
17.95
19.03
19.38
18.94
17.79
16.11
14.13
12.13
10.32
8.81
7.51
6.25
4.90
3.49
2.22
1.33
0.94
0.98
1.18
1.32
1.26
1.10
0.99
1.06
1.29
1.52
1.60
1.42
1.02
0.50
-0.04
-0.51
-0.92
-1.25
-1.51
-1.71
-1.96
-2.35
-2.97
-3.81
-4.69
-5.35
-5.61
-5.43
-4.97
-4.44
-4.02
-3.70
-3.35
-2.73
-1.65
-0.04
1.97
4.09
5.98
7.36
8.12
8.31
8.17
7.90
7.61
7.29
6.87
6.32
5.75
5.39
5.39
5.77
6.36
6.87
7.04
6.76
6.04
5.01
3.77
2.37
0.81
-0.93
-2.81
-4.68
-6.29
-7.41
-7.92
-7.87
-7.47
-6.97
-6.52
-6.13
-5.66
-4.98
-4.01
-2.87
-1.72
-0.72
0.10
0.88
1.79
2.97
4.35
5.74
6.86
7.49
7.60
7.29
6.79
6.28
5.82
5.36
4.77
3.97
2.97
1.87
0.78
-0.20
-1.04
-1.74
-2.30
-2.68
-2.84
-2.77
-2.48
-2.06
-1.64
-1.41
-1.53
-2.06
-2.90
-3.80
-4.43
-4.50
-3.93
-2.85
-1.59
-0.52
0.12
0.31
0.21
0.04
-0.06
-0.11
-0.20
-0.42
-0.77
-1.10
-1.26
-1.17
-0.88
-0.59
-0.53
-0.77
-1.22
-1.61
-1.69
-1.32
-0.60
0.18
0.69
0.69
0.18
-0.65
-1.54
-2.25
-2.70
-2.90
-2.93
-2.74
-2.24
-1.37
-0.21
0.94
1.67
1.67
0.88
-0.43
-1.78
-2.81
-3.37
-3.64
-3.91
-4.36
-4.94
-5.43
-5.59
-5.36
-4.85
-4.33
-4.04
-4.11
-4.55
-5.25
-6.07
-6.92
-7.71
-8.38
-8.85
-8.95
-8.42
-6.86
-3.89
0.69
6.71
13.54
20.21
25.69
29.22
30.47
29.49
26.60
22.18
16.66
10.54
4.49
-0.74
-4.45
-6.29
-6.43
-5.45
-4.13
-3.11
-2.64
-2.58
-2.56
-2.23
-1.49
-0.50
0.43
0.99
1.07
0.79
0.38
0.14
0.21
0.62
1.24
1.89
2.37
2.54
2.27
1.51
0.28
-1.30
-3.02
-4.57
-5.65
-6.07
-5.81
-5.05
-4.13
-3.35
-2.91
-2.79
-2.80
-2.68
-2.26
-1.51
-0.58
0.30
0.93
1.16
1.00
0.52
-0.11
-0.71
-1.16
-1.41
-1.48
-1.46
-1.40
-1.33
-1.28
-1.25
-1.25
-1.27
-1.26
-1.18
-1.03
-0.84
-0.69
-0.65
-0.66
-0.62
-0.36
0.20
1.03
1.95
2.75
3.29
3.51
3.41
3.03
2.42
1.66
0.91
0.33
0.02
0.01
0.16
0.28
0.22
-0.06
-0.49
-0.88
-1.07
-0.98
-0.67
-0.25
0.12
0.35
0.40
0.30
0.14
-0.01
-0.11
-0.14
-0.12
-0.06
0.01
0.10
0.23
0.40
0.60
0.83
1.06
1.24
1.34
1.33
1.17
0.89
0.54
0.20
-0.04
-0.17
-0.22
-0.28
-0.42
-0.65
-0.95
-1.31
-1.72
-2.21
-2.77
-3.33
-3.75
-3.88
-3.65
-3.10
-2.37
-1.59
-0.89
-0.29
0.24
0.72
1.17
1.57
1.92
2.16
2.22
1.98
1.40
0.56
-0.30
-0.91
-1.06
-0.76
-0.18
0.42
0.86
1.06
1.10
1.04
0.93
0.74
0.45
0.10
-0.23
-0.49
-0.71
-0.95
-1.25
-1.55
-1.74
-1.70
-1.42
-1.02
-0.67
-0.49
-0.49
-0.60
-0.73
-0.86
-1.02
-1.21
-1.35
-1.29
-0.91
-0.18
0.74
1.57
2.07
2.13
1.84
1.39
1.01
0.83
0.86
1.01
1.17
1.28
1.30
1.23
1.10
0.91
0.68
0.44
0.27
0.27
0.52
0.99
1.57
2.07
2.33
2.26
1.90
1.40
0.96
0.70
0.64
0.75
0.94
1.12
1.25
1.27
1.14
0.88
0.50
0.08
-0.28
-0.52
-0.60
-0.56
-0.45
-0.32
-0.20
-0.14
-0.15
-0.29
-0.58
-0.98
-1.41
-1.75
-1.88
-1.76
-1.42
-0.94
-0.43
0.03
0.36
0.54
0.54
0.39
0.10
-0.26
-0.62
-0.87
-0.96
-0.85
-0.58
-0.23
0.09
0.31
0.41
0.40
0.26
0.03
-0.32
-0.75
-1.22
-1.62
-1.86
-1.84
-1.56
-1.09
-0.58
-0.17
0.04
0.02
-0.20
-0.55
-0.94
-1.33
-1.65
-1.90
-2.04
-2.04
-1.88
-1.59
-1.21
-0.88
-0.74
-0.93
-1.48
-2.29
-3.10
-3.62
-3.61
-3.00
-1.95
-0.72
0.41
1.28
1.87
2.29
2.64
2.99
3.35
3.70
4.01
4.25
4.39
4.35
4.00
3.21
1.93
0.26
-1.56
-3.15
-4.12
-4.20
-3.31
-1.66
0.36
2.26
3.69
4.60
5.13
5.59
6.14
6.70
7.01
6.77
5.83
4.36
2.73
1.31
0.30
-0.34
-0.78
-1.17
-1.51
-1.67
-1.51
-1.04
-0.41
0.11
0.27
-0.03
-0.68
-1.48
-2.18
-2.62
-2.79
-2.83
-2.94
-3.27
-3.86
-4.64
-5.48
-6.28
-7.03
-7.72
-8.29
-8.56
-8.31
-7.37
-5.81
-3.89
-1.95
-0.26
1.09
2.20
3.25
4.26
5.12
5.61
5.53
4.89
3.87
2.74
1.77
1.14
0.90
1.02
1.40
1.91
2.43
2.85
3.07
3.01
2.68
2.14
1.53
1.03
0.76
0.73
0.84
0.93
0.86
0.63
0.34
0.14
0.16
0.38
0.65
0.75
0.55
0.08
-0.45
-0.79
-0.79
-0.54
-0.38
-0.72
-1.75
-3.24
-4.47
-4.58
-3.00
0.04
3.39
5.37
4.44
-0.01
-7.26
-15.40
-22.11
-25.69
-25.78
-23.62
-21.49
-21.76
-25.88
-33.64
-43.28
-52.30
-58.60
-61.45
-61.78
-61.57
-62.80
-66.47
-72.10
-78.04
-81.92
-81.38
-74.77
-61.77
-44.25
-26.84
-16.68
-21.74
-47.65
-94.50
-155.33
-217.65
-267.59
-294.92
-296.37
-275.61
-240.34
-198.12
-153.33
-106.71
-57.13
-4.18
50.07
101.10
143.69
174.16
191.76
198.66
198.59
194.96
189.58
182.21
171.68
157.31
140.05
122.49
107.87
98.41
94.26
93.47
92.99
90.05
83.19
72.58
59.90
47.75
38.82
35.02
36.66
42.12
48.41
52.33
51.94
47.37
40.63
34.36
30.44
29.04
28.89
28.28
26.18
22.76
19.09
16.36
15.24
15.67
17.15
18.98
20.54
21.36
21.17
19.89
17.71
15.17
13.07
12.30
13.46
16.50
20.44
23.43
23.34
18.57
8.92
-4.09
-17.61
-28.38
-33.93
-33.38
-27.64
-18.90
-9.58
-1.45
4.75
9.24
12.56
15.16
17.16
18.57
19.28
18.96
16.72
11.25
1.17
-14.01
-33.19
-53.60
-71.81
-85.11
-92.79
-96.20
-97.55
-98.16
-97.00
-90.90
-76.20
-51.19
-17.76
18.80
51.67
75.23
87.20
89.24
85.62
80.89
77.74
76.17
74.27
69.82
61.80
50.90
39.05
28.44
20.71
16.73
17.12
22.49
33.28
49.58
70.09
92.21
112.69
128.99
140.21
147.18
151.63
155.00
157.29
156.94
151.37
138.40
117.69
91.39
63.93
40.72
26.20
22.15
26.82
35.25
40.73
36.95
20.02
-10.31
-50.76
-95.61
-138.35
-173.54
-197.74
-210.08
-212.14
-206.82
-197.46
-186.87
-176.99
-168.80
-162.58
-158.38
-156.32
-156.75
-160.08
-166.50
-175.63
-186.58
-198.32
-210.25
-222.50
-235.34
-248.26
-259.05
-264.03
-259.18
-242.02
-212.81
-174.52
-131.22
-86.06
-40.02
7.64
57.61
108.57
156.47
195.61
220.98
230.62
226.44
213.42
197.36
182.68
171.25
162.49
154.67
146.24
136.65
126.44
116.69
108.51
102.59
99.08
97.65
97.57
98.10
98.68
98.99
98.86
98.16
96.65
94.01
90.39
86.62
83.99
83.46
84.73
85.89
83.97
76.31
62.07
42.76
21.70
2.36
-13.10
-24.61
-33.56
-41.53
-49.11
-55.63
-59.72
-60.43
-57.90
-53.37
-48.48
-44.47
-41.77
-40.09
-38.75
-37.34
-35.92
-34.84
-34.39
-34.54
-34.96
-35.24
-35.12
-34.54
-33.58
-32.15
-29.91
-26.36
-21.15
-14.44
-7.02
-0.21
4.56
6.34
5.05
1.59
-2.57
-6.01
-8.09
-9.30
-10.91
-14.30
-19.97
-27.07
-33.60
-37.41
-36.87
-31.52
-22.04
-10.03
1.93
10.08
9.32
-5.79
-38.99
-89.65
-151.31
-212.63
-260.72
-285.64
-283.55
-257.20
-213.39
-159.40
-100.49
-39.75
20.26
75.82
121.81
153.48
168.85
170.00
162.47
152.67
145.14
141.19
139.49
137.73
134.69
130.94
128.32
128.70
132.90
140.23
148.65
155.18
156.26
148.68
130.56
102.29
67.00
30.05
-2.61
-26.57
-40.58
-46.70
-49.02
-51.41
-55.85
-62.13
-68.64
-74.04
-78.32
-82.70
-88.54
-95.77
-102.08
-103.15
-94.33
-72.74
-38.87
3.20
47.30
87.62
120.82
146.86
167.87
185.85
200.46
208.32
204.29
183.95
146.19
94.60
36.78
-17.96
-61.70
-90.28
-104.18
-107.41
-105.27
-102.03
-99.40
-96.72
-92.40
-85.52
-77.01
-69.27
-64.78
-64.38
-66.67
-68.63
-67.07
-60.09
-47.42
-30.05
-9.66
12.09
33.68
53.67
70.75
84.08
93.61
100.05
104.22
106.09
104.28
96.48
80.88
57.74
30.21
3.71
-15.95
-24.71
-21.49
-8.22
11.16
32.34
51.86
67.71
79.20
86.76
91.41
94.53
97.51
101.46
107.09
114.97
125.88
140.84
160.46
183.90
208.01
227.56
236.75
231.44
211.00
178.74
140.36
101.81
66.92
36.43
8.55
-19.75
-51.51
-89.23
-134.58
-187.75
-246.46
-305.06
-354.82
-385.78
-389.99
-364.54
-313.19
-245.49
-173.86
-110.00
-61.98
-33.09
-22.25
-25.53
-37.65
-53.22
-67.55
-77.17
-80.18
-76.46
-67.46
-55.67
-44.21
-35.79
-32.15
-33.43
-38.07
-43.19
-45.59
-43.05
-35.39
-24.67
-14.44
-8.06
-7.24
-11.48
-18.45
-25.46
-30.82
-34.47
-37.86
-42.90
-51.17
-63.21
-78.16
-93.47
-104.98
-107.74
-97.59
-73.06
-36.62
5.64
46.05
77.99
97.92
105.84
104.02
95.33
82.12
66.16
49.18
33.47
21.53
15.28
15.22
20.15
27.49
33.68
35.04
28.30
11.72
-14.27
-46.78
-81.03
-111.72
-134.49
-146.78
-147.69
-137.25
-116.02
-85.25
-47.45
-6.92
30.88
60.81
79.75
87.60
86.86
81.14
73.61
66.12
59.31
53.20
47.95
43.86
41.05
39.09
36.92
33.19
26.97
18.22
7.83
-2.53
-11.24
-17.27
-20.78
-23.11
-26.26
-31.96
-40.82
-52.02
-63.46
-72.90
-78.87
-81.35
-81.53
-80.95
-80.55
-80.17
-78.54
-73.64
-63.30
-45.89
-20.91
10.32
44.62
77.59
104.93
123.74
133.24
134.27
128.35
116.81
100.63
81.10
60.31
41.07
26.05
16.62
12.18
10.60
9.32
6.31
0.82
-6.79
-15.26
-22.67
-26.76
-25.40
-17.35
-2.92
15.38
33.48
46.76
51.62
46.56
32.23
10.43
-17.25
-50.34
-89.01
-132.48
-177.25
-216.65
-242.27
-247.05
-228.21
-188.37
-134.27
-73.89
-13.56
43.08
94.38
139.25
176.18
203.78
221.66
230.88
232.96
228.62
216.72
195.12
162.85
121.78
77.24
36.28
4.89
-14.24
-22.27
-22.88
-20.08
-16.50
-12.99
-9.36
-5.50
-1.98
0.27
0.66
-0.40
-1.47
-0.71
3.10
9.73
17.38
23.24
24.75
20.68
11.64
-0.16
-11.90
-21.22
-26.89
-28.96
-28.29
-25.99
-23.10
-20.38
-18.36
-17.36
-17.50
-18.63
-20.47
-22.67
-24.97
-27.18
-29.12
-30.55
-31.21
-30.88
-29.51
-27.33
-24.78
-22.39
-20.57
-19.48
-18.96
-18.63
-18.09
-17.14
-15.90
-14.73
-13.98
-13.64
-13.25
-12.04
-9.33
-4.95
0.60
6.30
11.08
14.23
15.66
15.87
15.64
15.74
16.75
18.94
22.29
26.50
30.91
34.62
36.61
36.10
32.76
26.99
19.74
12.32
5.99
1.63
-0.40
-0.25
1.57
4.38
7.52
10.47
12.94
14.77
15.91
16.32
15.98
14.88
13.15
11.09
9.25
8.21
8.31
9.43
10.93
11.84
11.26
8.90
5.07
0.68
-3.17
-5.71
-6.68
-6.29
-4.88
-2.86
-0.65
1.11
1.60
0.08
-3.74
-9.41
-15.90
-22.02
-26.93
-30.33
-32.41
-33.43
-33.42
-32.12
-29.13
-24.33
-18.02
-10.91
-3.85
2.51
7.83
12.10
15.42
18.07
20.17
21.81
23.09
24.15
25.30
26.82
28.80
30.94
32.58
32.94
31.59
28.79
25.48
23.04
22.85
25.94
32.81
43.25
56.02
68.41
76.32
75.14
61.58
35.43
0.24
-37.83
-72.23
-98.30
-114.26
-120.42
-117.72
-106.33
-85.65
-55.12
-15.52
30.37
77.83
120.93
153.59
170.99
171.02
155.48
130.33
104.24
85.82
80.24
87.46
102.46
117.60
125.82
123.18
110.07
90.81
71.91
59.89
58.92
69.21
86.68
104.27
114.29
110.82
91.53
57.71
13.50
-35.49
-83.35
-124.66
-155.00
-171.70
-174.41
-165.47
-149.45
-131.77
-117.20
-108.49
-106.03
-108.14
-112.11
-115.06
-114.81
-110.46
-102.50
-92.76
-83.78
-77.87
-76.14
-77.84
-80.53
-81.22
-78.10
-71.72
-65.07
-62.20
-66.01
-76.47
-90.50
-103.22
-110.31
-110.02
-103.76
-95.23
-88.75
-87.60
-93.11
-104.38
-118.40
-130.60
-135.63
-128.84
-107.93
-74.29
-32.89
8.99
43.87
66.24
73.76
67.39
50.44
27.15
1.21
-24.99
-50.44
-74.90
-97.79
-117.59
-131.96
-138.76
-137.51
-130.16
-120.31
-111.30
-104.12
-96.22
-82.34
-56.71
-15.78
39.54
103.24
165.29
214.15
239.82
236.55
204.28
148.60
79.45
8.84
-51.72
-93.44
-111.73
-106.40
-80.85
-40.83
7.05
56.45
101.90
139.12
165.24
179.07
181.56
175.96
166.97
159.21
155.54
155.95
158.05
158.60
155.24
147.78
138.29
129.74
124.93
125.32
130.81
140.14
151.37
161.77
167.88
166.06
153.67
130.69
100.42
68.68
41.62
23.23
14.06
11.95
14.16
19.46
28.72
43.40
63.23
84.68
101.39
106.47
95.21
66.79
24.21
-26.95
-80.37
-130.42
-172.78
-204.99
-226.13
-236.78
-238.84
-235.12
-228.72
-222.39
-218.15
-217.07
-219.30
-223.98
-229.25
-232.52
-231.21
-223.77
-210.55
-194.09
-178.47
-168.11
-166.18
-173.31
-187.08
-202.53
-213.53
-214.58
-202.42
-176.78
-139.97
-95.49
-46.54
4.75
56.93
108.13
155.12
193.51
219.28
230.72
229.38
219.62
206.52
193.57
181.46
169.10
155.87
143.82
137.42
141.17
156.12
177.52
195.76
199.98
182.49
141.54
81.36
9.59
-65.73
-137.94
-201.86
-252.93
-286.73
-299.83
-291.07
-262.39
-218.40
-164.83
-107.04
-49.43
4.42
51.41
88.80
114.74
129.09
133.64
131.73
127.24
123.47
122.50
124.86
129.84
136.03
141.88
146.04
147.75
146.84
143.70
139.23
134.66
131.35
130.44
132.34
136.20
140.08
141.47
138.40
130.38
118.79
106.50
96.92
92.97
96.26
106.63
122.01
138.61
151.51
155.69
147.22
124.25
87.32
39.25
-15.60
-71.82
-123.49
-164.81
-191.19
-200.58
-194.63
-178.56
-159.33
-142.74
-130.85
-121.39
-109.52
-90.94
-64.28
-31.85
1.81
31.91
54.66
67.46
68.41
56.37
31.82
-1.94
-38.55
-70.18
-90.43
-96.93
-92.12
-81.73
-71.70
-65.45
-63.01
-61.87
-58.84
-51.99
-41.62
-30.37
-22.53
-22.69
-34.01
-57.08
-89.32
-125.75
-160.92
-190.70
-213.60
-230.75
-244.63
-257.24
-268.91
-278.13
-282.53
-280.27
-270.92
-255.38
-235.10
-211.05
-183.26
-151.11
-114.10
-72.45
-27.25
20.14
68.57
117.25
165.27
210.92
251.59
284.18
306.24
316.75
316.50
307.67
293.21
276.33
259.83
245.76
234.97
226.95
220.01
212.18
202.28
190.83
180.27
174.17
175.97
187.58
208.33
234.63
260.57
279.38
285.37
275.59
250.65
214.17
171.27
126.61
83.16
41.72
1.46
-39.25
-81.88
-126.94
-173.53
-219.25
-260.55
-293.62
-315.33
-324.05
-320.01
-305.06
-282.22
-255.27
-228.26
-204.85
-187.40
-176.20
-169.31
-163.23
-154.03
-138.73
-116.05
-86.60
-52.60
-17.27
15.78
43.39
63.63
76.20
82.34
84.06
83.24
80.97
77.46
72.65
66.84
60.94
56.12
52.98
51.13
49.44
46.75
42.61
37.77
33.80
32.23
33.69
37.50
42.17
46.30
49.51
52.41
55.68
59.04
60.73
58.31
50.00
35.88
17.80
-1.70
-20.90
-39.56
-58.31
-77.34
-95.44
-110.06
-118.66
-120.23
-116.10
-109.35
-103.28
-99.87
-99.14
-99.53
-98.82
-94.90
-86.32
-72.47
-53.65
-31.25
-7.56
14.62
32.89
46.04
54.37
59.21
61.92
62.94
61.56
56.61
47.58
35.56
23.22
13.94
10.53
14.09
23.63
36.63
49.90
60.71
67.52
70.25
70.07
68.86
68.64
70.74
75.07
79.85
82.08
78.76
68.33
51.49
31.08
10.82
-6.12
-18.18
-25.31
-28.28
-27.99
-25.35
-21.82
-19.71
-21.76
-29.98
-44.29
-62.07
-79.08
-91.24
-96.36
-94.68
-88.18
-79.31
-69.69
-59.89
-49.83
-39.68
-30.23
-22.68
-18.00
-16.26
-16.50
-17.11
-16.59
-14.26
-10.50
-6.44
-3.35
-1.96
-2.20
-3.38
-4.63
-5.40
-5.68
-5.91
-6.60
-8.00
-9.89
-11.85
-13.51
-14.84
-16.18
-17.95
-20.39
-23.30
-26.11
-28.00
-28.23
-26.39
-22.53
-17.12
-10.91
-4.70
0.89
5.52
9.12
11.78
13.61
14.67
15.01
14.75
14.09
13.27
12.48
11.75
10.95
9.94
8.71
7.47
6.52
6.13
6.36
6.99
7.62
7.87
7.56
6.77
5.78
4.96
4.58
4.68
5.09
5.53
5.78
5.69
5.28
4.68
3.99
3.22
2.35
1.31
0.15
-0.93
-1.68
-1.90
-1.61
-0.99
-0.32
0.18
0.47
0.63
0.81
1.02
1.19
1.17
0.86
0.28
-0.47
-1.25
-1.99
-2.68
-3.34
-3.95
-4.48
-4.90
-5.17
-5.30
-5.29
-5.19
-5.04
-4.92
-4.90
-4.96
-5.04
-5.01
-4.73
-4.18
-3.42
-2.63
-1.96
-1.47
-1.09
-0.72
-0.24
0.35
0.98
1.55
1.99
2.29
2.47
2.57
2.60
2.57
2.53
2.53
2.65
2.84
3.01
2.97
2.59
1.89
1.00
0.16
-0.48
-0.85
-1.04
-1.17
-1.28
-1.34
-1.31
-1.16
-0.94
-0.73
-0.58
-0.44
-0.18
0.29
1.00
1.87
2.76
3.55
4.15
4.51
4.63
4.53
4.27
3.97
3.76
3.77
4.05
4.53
5.07
5.48
5.65
5.55
5.30
5.10
5.18
5.72
6.74
8.15
9.74
11.19
12.14
12.24
11.30
9.44
7.08
4.90
3.59
3.59
4.81
6.72
8.43
9.16
8.41
6.11
2.59
-1.64
-6.01
-9.96
-13.02
-14.89
-15.52
-15.15
-14.26
-13.42
-13.03
-13.25
-13.94
-14.78
-15.49
-15.93
-16.09
-16.03
-15.68
-14.88
-13.40
-11.16
-8.29
-5.22
-2.52
-0.68
0.05
-0.21
-1.04
-1.90
-2.34
-2.18
-1.56
-0.82
-0.30
-0.11
-0.14
-0.10
0.22
0.83
1.53
1.96
1.90
1.22
-0.03
-1.86
-4.35
-7.62
-11.54
-15.54
-18.57
-19.46
-17.43
-12.53
-5.78
1.26
7.11
10.99
12.94
13.59
13.60
13.26
12.45
10.90
8.61
5.98
3.67
2.26
1.84
2.04
2.20
1.80
0.68
-0.88
-2.34
-3.25
-3.40
-2.89
-2.05
-1.17
-0.48
-0.00
0.29
0.41
0.34
-0.01
-0.66
-1.53
-2.45
-3.22
-3.73
-3.95
-3.87
-3.43
-2.47
-0.79
1.68
4.81
8.20
11.32
13.68
15.06
15.49
15.25
14.74
14.29
14.08
14.14
14.34
14.48
14.36
13.86
12.92
11.58
9.90
7.97
5.92
3.93
2.22
1.04
0.51
0.59
1.06
1.55
1.69
1.29
0.33
-1.01
-2.52
-4.01
-5.44
-6.90
-8.53
-10.45
-12.71
-15.28
-18.06
-20.91
-23.72
-26.38
-28.74
-30.62
-31.68
-31.55
-29.89
-26.55
-21.72
-15.96
-10.06
-4.87
-0.99
1.39
2.51
2.95
3.36
4.16
5.44
6.90
8.08
8.49
7.93
6.46
4.39
2.12
0.05
-1.63
-2.90
-3.99
-5.30
-7.33
-10.51
-14.98
-20.50
-26.44
-32.02
-36.65
-40.20
-43.11
-46.16
-50.15
-55.46
-61.89
-68.65
-74.77
-79.47
-82.52
-84.52
-86.83
-91.34
-99.90
-113.31
-130.45
-147.87
-160.28
-161.91
-148.36
-118.25
-73.94
-21.08
32.97
81.09
118.11
141.72
152.41
152.65
145.78
135.00
122.83
110.97
100.60
92.52
87.26
84.82
84.37
84.28
82.62
77.96
70.10
60.28
50.77
43.95
41.22
42.46
46.06
49.71
51.35
50.10
46.48
42.12
39.07
39.22
44.04
54.25
69.40
87.12
103.01
111.50
107.90
90.73
62.89
30.93
2.34
-17.55
-27.57
-30.39
-30.31
-30.63
-32.05
-33.07
-31.65
-26.89
-19.75
-12.36
-6.80
-4.08
-3.93
-5.21
-6.82
-8.27
-9.89
-12.58
-17.19
-24.18
-33.32
-43.73
-54.17
-63.37
-70.43
-74.95
-77.16
-77.81
-77.87
-78.38
-80.26
-84.31
-91.08
-100.44
-110.86
-118.97
-119.94
-109.04
-83.78
-45.60
0.06
45.41
83.02
108.25
120.08
120.43
112.45
99.06
82.47
64.50
47.13
32.49
22.34
17.24
16.29
17.54
18.78
18.53
16.39
12.95
9.31
6.54
5.26
5.50
6.78
8.35
9.49
9.73
9.00
7.62
6.14
5.05
4.61
4.70
4.96
4.96
4.47
3.55
2.41
1.29
0.28
-0.66
-1.60
-2.50
-3.15
-3.29
-2.76
-1.61
-0.08
1.51
2.96
4.30
5.79
7.75
10.40
13.68
17.26
20.60
23.19
24.59
24.59
23.13
20.27
16.17
11.14
5.60
0.10
-4.79
-8.62
-11.16
-12.45
-12.75
-12.43
-11.84
-11.23
-10.72
-10.30
-9.92
-9.51
-9.06
-8.60
-8.14
-7.69
-7.19
-6.61
-5.93
-5.25
-4.71
-4.43
-4.40
-4.50
-4.51
-4.27
-3.69
-2.91
-2.14
-1.62
-1.47
-1.67
-2.04
-2.39
-2.59
-2.59
-2.46
-2.25
-2.03
-1.80
-1.60
-1.46
-1.44
-1.56
-1.72
-1.79
-1.62
-1.15
-0.52
0.07
0.38
0.33
-0.03
-0.50
-0.90
-1.11
-1.12
-1.02
-0.88
-0.75
-0.62
-0.44
-0.18
0.16
0.55
0.93
1.21
1.33
1.28
1.09
0.81
0.52
0.31
0.20
0.18
0.23
0.33
0.49
0.70
0.96
1.19
1.31
1.29
1.14
0.96
0.89
0.96
1.13
1.24
1.18
0.92
0.58
0.32
0.27
0.44
0.72
0.91
0.91
0.70
0.40
0.18
0.17
0.39
0.79
1.20
1.46
1.49
1.30
0.98
0.68
0.46
0.32
0.17
-0.09
-0.45
-0.84
-1.15
-1.32
-1.34
-1.28
-1.22
-1.21
-1.23
-1.26
-1.27
-1.22
-1.10
-0.84
-0.41
0.18
0.84
1.44
1.89
2.11
2.12
1.98
1.78
1.59
1.48
1.51
1.65
1.85
2.00
2.00
1.84
1.58
1.32
1.17
1.16
1.32
1.67
2.19
2.77
3.13
2.91
1.86
0.06
-2.05
-3.75
-4.43
-3.89
-2.41
-0.65
0.77
1.55
1.76
1.76
1.84
2.07
2.28
2.20
1.71
0.92
0.12
-0.35
-0.26
0.37
1.30
2.20
2.76
2.85
2.52
1.98
1.51
1.28
1.33
1.57
1.85
2.05
2.15
2.22
2.33
2.54
2.80
3.02
3.10
3.02
2.85
2.71
2.68
2.76
2.82
2.68
2.18
1.29
0.11
-1.11
-2.09
-2.66
-2.79
-2.65
-2.52
-2.69
-3.29
-4.25
-5.30
-6.12
-6.43
-6.18
-5.48
-4.61
-3.82
-3.25
-2.88
-2.65
-2.45
-2.26
-2.11
-2.04
-2.05
-2.13
-2.27
-2.42
-2.59
-2.79
-2.99
-3.15
-3.19
-3.11
-2.93
-2.70
-2.49
-2.32
-2.20
-2.11
-2.08
-2.15
-2.33
-2.60
-2.85
-2.95
-2.81
-2.45
-1.98
-1.56
-1.28
-1.13
-1.00
-0.72
-0.21
0.54
1.44
2.39
3.30
4.17
5.08
6.12
7.34
8.76
10.27
11.67
12.74
13.33
13.39
13.05
12.50
11.94
11.48
11.08
10.61
9.95
9.00
7.76
6.32
4.79
3.32
1.97
0.81
-0.19
-1.07
-1.90
-2.70
-3.52
-4.34
-5.13
-5.85
-6.43
-6.81
-6.95
-6.86
-6.62
-6.34
-6.13
-6.02
-6.02
-6.08
-6.13
-6.09
-5.91
-5.58
-5.11
-4.54
-3.92
-3.30
-2.69
-2.12
-1.63
-1.25
-1.04
-0.99
-1.02
-1.02
-0.92
-0.81
-0.85
-1.28
-2.18
-3.43
-4.77
-5.87
-6.56
-6.92
-7.16
-7.53
-8.14
-8.91
-9.64
-10.14
-10.32
-10.25
-9.99
-9.60
-9.02
-8.12
-6.83
-5.19
-3.39
-1.64
-0.13
1.08
2.06
2.95
3.86
4.83
5.79
6.68
7.46
8.16
8.84
9.52
10.13
10.53
10.63
10.37
9.89
9.40
9.13
9.21
9.64
10.27
10.95
11.52
11.89
11.99
11.69
10.81
9.22
6.84
3.79
0.28
-3.37
-6.91
-10.14
-12.95
-15.25
-16.99
-18.11
-18.61
-18.55
-18.03
-17.17
-16.08
-14.79
-13.36
-11.80
-10.14
-8.40
-6.60
-4.74
-2.82
-0.89
0.91
2.47
3.67
4.45
4.83
4.93
4.90
4.86
4.87
4.88
4.80
4.57
4.21
3.80
3.45
3.24
3.14
3.10
3.02
2.89
2.73
2.61
2.57
2.59
2.60
2.50
2.29
2.03
1.81
1.71
1.72
1.82
1.92
1.98
2.01
2.01
1.94
1.75
1.39
0.87
0.26
-0.32
-0.76
-0.99
-1.04
-0.94
-0.76
-0.54
-0.31
-0.13
-0.03
-0.02
-0.03
0.02
0.23
0.58
0.95
1.14
0.96
0.38
-0.46
-1.27
-1.74
-1.65
-1.01
-0.04
0.94
1.61
1.82
1.55
0.97
0.30
-0.23
-0.49
-0.42
-0.06
0.49
1.11
1.68
2.14
2.46
2.67
2.80
2.88
2.91
2.86
2.69
2.36
1.86
1.25
0.63
0.09
-0.31
-0.62
-0.89
-1.18
-1.46
-1.64
-1.63
-1.37
-0.96
-0.55
-0.32
-0.33
-0.47
-0.56
-0.40
0.07
0.76
1.46
1.98
2.24
2.32
2.40
2.65
3.17
3.96
4.93
5.98
7.04
8.04
8.84
9.26
9.13
8.40
7.21
5.89
4.83
4.31
4.39
4.88
5.47
5.92
6.16
6.31
6.54
6.89
7.18
6.98
5.85
3.52
0.03
-4.22
-8.61
-12.52
-15.46
-17.25
-17.97
-17.86
-17.25
-16.34
-15.24
-13.94
-12.46
-10.88
-9.41
-8.22
-7.44
-6.98
-6.70
-6.43
-6.14
-5.91
-5.84
-5.91
-5.89
-5.39
-4.10
-1.94
0.74
3.33
5.10
5.56
4.72
3.04
1.34
0.33
0.35
1.20
2.30
3.05
3.17
2.80
2.27
1.86
1.55
1.10
0.32
-0.63
-1.23
-0.88
0.67
3.05
5.43
6.97
7.29
6.45
4.63
1.49
-4.05
-13.36
-27.19
-44.73
-63.40
-79.64
-90.49
-94.93
-94.54
-92.74
-93.11
-97.56
-105.39
-113.57
-118.05
-115.43
-104.37
-86.02
-63.56
-41.25
-23.12
-11.65
-6.80
-5.77
-4.02
2.85
16.85
36.50
57.18
73.15
80.02
76.43
64.40
48.19
32.61
21.54
17.09
19.53
27.38
38.01
48.18
55.02
56.81
53.44
46.31
37.50
28.98
22.29
18.51
18.38
22.31
30.01
40.21
50.72
58.92
62.59
60.40
52.21
38.80
21.40
1.45
-19.51
-39.70
-57.23
-70.48
-78.72
-82.55
-83.86
-85.18
-88.67
-95.27
-104.59
-115.30
-125.76
-134.49
-140.09
-141.09
-135.77
-122.46
-99.98
-67.93
-26.47
24.05
82.95
148.33
215.89
278.26
325.94
349.87
344.67
311.11
256.37
191.90
129.90
79.83
46.40
29.34
24.74
27.06
30.99
32.77
30.56
24.30
15.04
4.37
-6.10
-14.90
-20.84
-23.36
-22.89
-21.10
-20.55
-23.82
-32.52
-46.42
-63.33
-79.87
-92.62
-99.28
-99.32
-93.98
-85.77
-77.66
-72.14
-70.52
-72.65
-77.14
-82.10
-86.10
-88.96
-91.82
-96.23
-102.92
-110.60
-115.79
-113.83
-100.47
-73.14
-31.33
23.59
88.67
159.21
228.42
287.73
328.24
343.22
330.37
292.59
236.97
172.37
106.90
46.54
-4.91
-45.19
-73.07
-88.31
-91.92
-86.24
-74.48
-59.93
-45.33
-32.50
-22.45
-15.23
-10.27
-6.59
-3.25
0.25
3.61
5.96
6.29
4.03
-0.63
-6.76
-13.07
-18.38
-22.07
-24.16
-25.12
-25.57
-25.98
-26.46
-26.85
-26.89
-26.42
-25.46
-24.25
-23.05
-22.02
-21.18
-20.41
-19.54
-18.40
-16.86
-14.85
-12.39
-9.62
-6.79
-4.22
-2.14
-0.63
0.43
1.20
1.81
2.24
2.36
2.07
1.42
0.56
-0.31
-1.09
-1.89
-2.87
-4.14
-5.65
-7.11
-8.19
-8.60
-8.19
-7.02
-5.26
-3.18
-1.12
0.61
1.71
2.08
1.77
1.05
0.26
-0.31
-0.52
-0.38
-0.01
0.45
0.89
1.31
1.73
2.17
2.60
2.92
2.98
2.72
2.17
1.56
1.21
1.41
2.31
3.81
5.63
7.44
9.02
10.27
11.16
11.58
11.35
10.22
8.07
5.02
1.56
-1.68
-4.10
-5.34
-5.41
-4.56
-3.18
-1.64
-0.24
0.82
1.46
1.77
1.96
2.29
2.85
3.49
3.77
3.26
1.73
-0.62
-3.24
-5.40
-6.55
-6.58
-5.78
-4.75
-4.06
-4.01
-4.59
-5.53
-6.52
-7.31
-7.68
-7.47
-6.40
-4.19
-0.56
4.49
10.54
16.81
22.28
26.03
27.60
27.13
25.31
23.42
23.28
27.12
37.19
54.97
80.43
111.47
143.91
172.30
191.24
196.78
187.45
164.47
131.03
90.91
47.17
1.12
-48.08
-102.66
-164.70
-234.13
-307.08
-375.90
-430.98
-464.00
-471.03
-453.81
-418.75
-374.06
-326.47
-279.27
-232.49
-184.50
-133.93
-80.79
-26.55
26.41
75.41
117.87
151.47
174.64
186.95
189.40
184.03
173.44
160.00
145.47
131.05
117.75
106.68
99.00
95.49
96.01
99.28
103.15
105.35
104.36
100.00
93.49
86.69
81.13
77.31
74.55
71.58
67.33
61.56
54.83
48.01
41.68
35.86
30.22
24.38
18.36
12.60
7.80
4.59
3.31
3.94
6.17
9.51
13.47
17.57
21.48
25.00
28.11
30.97
33.86
37.04
40.77
45.20
50.44
56.42
63.01
70.01
77.17
84.29
91.26
98.09
104.94
112.23
120.71
131.39
144.91
160.82
176.91
189.33
193.56
185.93
164.82
131.06
87.33
37.21
-15.55
-67.12
-113.49
-150.64
-175.35
-186.36
-185.04
-175.19
-161.57
-148.20
-137.15
-128.50
-121.22
-114.30
-107.41
-100.91
-95.28
-90.64
-86.55
-82.29
-77.28
-71.39
-65.06
-59.03
-53.95
-50.15
-47.44
-45.31
-43.12
-40.41
-37.04
-33.21
-29.32
-25.72
-22.59
-19.87
-17.31
-14.64
-11.70
-8.48
-5.11
-1.81
1.15
3.42
4.65
4.55
3.14
0.74
-2.08
-4.70
-6.75
-8.17
-9.08
-9.57
-9.48
-8.52
-6.44
-3.28
0.53
4.34
7.60
10.00
11.55
12.36
12.42
11.67
10.00
7.51
4.57
1.73
-0.49
-1.84
-2.43
-2.64
-2.90
-3.47
-4.41
-5.65
-7.16
-9.03
-11.38
-14.14
-16.97
-19.24
-20.32
-19.90
-18.14
-15.67
-13.29
-11.59
-10.74
-10.52
-10.54
-10.55
-10.56
-10.83
-11.58
-12.74
-13.89
-14.36
-13.70
-11.92
-9.72
-8.22
-8.49
-11.13
-16.08
-22.81
-30.31
-37.21
-41.73
-41.99
-36.59
-25.42
-10.12
6.21
20.09
29.02
32.42
31.59
28.74
25.73
23.34
21.31
19.08
16.53
14.26
13.19
13.87
16.06
18.78
20.83
21.30
20.08
17.85
15.62
14.22
13.92
14.39
14.90
14.75
13.62
11.64
9.30
7.18
5.71
4.98
4.77
4.74
4.54
4.02
3.30
2.65
2.33
2.48
2.99
3.65
4.21
4.57
4.79
5.02
5.39
5.93
6.52
7.00
7.26
7.37
7.51
7.94
8.84
10.17
11.66
12.90
13.50
13.34
12.57
11.57
10.74
10.29
10.17
10.13
9.91
9.42
8.85
8.55
8.84
9.90
11.62
13.67
15.61
17.00
17.55
17.17
16.09
14.89
14.40
15.50
18.78
24.28
31.38
38.94
45.60
50.30
52.65
53.19
53.16
53.90
56.31
60.27
64.82
68.74
71.44
73.55
77.03
84.37
97.34
115.68
136.51
154.82
164.85
161.80
143.19
109.45
63.79
11.64
-40.35
-85.53
-118.57
-136.80
-140.73
-133.72
-120.58
-105.77
-92.01
-79.93
-68.99
-58.69
-49.50
-42.61
-38.90
-38.04
-38.37
-37.73
-34.65
-29.01
-21.87
-14.61
-7.99
-1.75
5.12
13.67
24.34
36.79
50.15
63.47
75.94
87.00
96.21
103.43
108.98
113.67
118.63
124.89
133.08
143.20
154.70
166.48
177.07
184.75
187.82
184.91
175.49
160.05
139.98
117.05
92.60
67.26
40.92
13.13
-16.48
-47.95
-81.08
-115.66
-151.54
-188.69
-226.98
-266.06
-305.46
-344.69
-383.50
-421.88
-460.01
-497.99
-535.91
-573.34
-609.39
-642.75
-671.98
-695.74
-712.97
-723.05
-724.28
-715.25
-694.51
-660.60
-612.14
-548.08
-467.99
-372.26
-262.42
-141.12
-12.23
119.71
249.94
373.82
487.27
586.96
670.55
736.78
785.21
816.15
830.49
829.68
815.98
791.63
758.38
717.64
670.61
618.28
561.71
502.21
441.40
381.14
323.89
272.01
227.81
193.34
169.99
158.39
158.33
168.63
186.85
210.21
234.72
255.81
269.87
273.07
262.25
235.15
190.67
128.56
52.22
-34.19
-125.88
-217.75
-304.97
-383.17
-448.57
-498.17
-535.23
-561.26
-577.49
-584.84
-584.25
-576.92
-564.39
-548.55
-529.07
-506.76
-481.95
-455.52
-428.59
-402.25
-377.50
-355.00
-334.94
-317.06
-300.97
-285.19
-268.24
-248.57
-224.72
-195.39
-159.40
-115.85
-64.17
-4.57
62.63
136.48
215.31
296.88
378.55
457.55
531.36
598.02
656.08
705.00
744.96
776.44
800.19
817.01
827.78
833.43
834.88
832.93
827.97
819.96
808.06
790.58
765.18
729.56
682.00
622.04
550.57
469.25
380.82
288.04
193.31
98.53
5.38
-84.33
-168.30
-243.83
-309.12
-362.49
-403.93
-435.16
-459.22
-480.07
-502.01
-529.38
-565.80
-614.18
-673.37
-739.27
-805.40
-865.27
-915.17
-956.14
-993.73
-1029.10
-1064.49
-1098.60
-1128.12
-1148.50
-1155.75
-1147.63
-1123.41
-1082.85
-1025.11
-957.29
-881.25
-797.94
-708.49
-614.86
-519.71
-425.70
-334.94
-248.74
-168.63
-92.73
-20.95
45.71
105.65
157.30
199.89
233.68
259.90
279.86
295.85
309.09
320.01
328.42
333.95
336.28
335.50
332.06
326.46
319.80
312.54
304.77
296.37
287.15
276.95
265.85
254.05
241.80
229.62
217.71
206.13
194.87
183.89
173.11
162.54
152.19
142.11
132.46
123.26
114.51
106.22
98.38
90.97
83.96
77.35
71.11
65.22
59.65
54.37
49.36
44.62
40.14
35.92
31.96
28.25
24.79
21.56
18.54
15.70
13.02
10.46
7.97
5.50
3.02
0.48
-2.14
-4.88
-7.74
-10.74
-13.86
-17.04
-20.26
-23.48
-26.60
-29.56
-32.25
-34.55
-36.33
-37.47
-37.87
-37.35
-35.83
-33.23
-29.51
-24.68
-18.78
-11.95
-4.35
3.74
12.01
20.12
27.71
34.47
40.17
44.67
47.88
49.85
50.64
50.40
49.29
47.52
45.27
42.82
40.41
38.28
36.61
35.50
34.93
34.83
35.07
35.59
36.33
37.30
38.59
40.21
42.08
43.97
45.58
46.59
46.84
46.37
45.45
44.45
43.72
43.45
43.60
43.95
44.28
44.52
44.90
45.87
48.03
51.84
57.43
64.57
72.82
81.64
90.68
99.83
109.25
119.37
130.89
144.90
162.57
184.57
210.22
237.02
260.96
277.75
284.36
280.11
266.63
246.95
224.09
200.21
176.57
154.06
133.78
116.99
104.60
96.57
91.73
88.23
84.32
79.11
72.60
65.35
58.02
50.90
43.93
36.93
29.95
23.38
17.79
13.66
11.07
9.63
8.77
7.94
6.86
5.45
3.73
1.66
-0.80
-3.54
-6.20
-8.26
-9.38
-9.59
-9.37
-9.48
-10.65
-13.34
-17.67
-23.31
-29.35
-34.36
-36.60
-34.76
-28.57
-19.39
-9.85
-3.00
-1.04
-4.30
-11.08
-18.38
-23.19
-23.79
-20.35
-14.67
-9.29
-6.27
-6.34
-8.63
-11.25
-12.31
-11.02
-8.01
-4.93
-3.45
-4.35
-7.13
-10.42
-12.87
-13.88
-13.93
-14.14
-15.77
-19.82
-26.99
-37.93
-53.17
-72.61
-94.96
-117.30
-135.82
-146.88
-148.39
-140.46
-124.91
-104.09
-79.45
-51.17
-18.89
16.83
53.43
86.37
110.73
123.31
124.13
116.50
105.44
95.54
89.18
86.32
85.46
84.99
84.15
82.79
80.85
77.68
72.17
63.46
51.75
38.58
26.23
16.87
11.51
9.78
10.38
11.91
13.54
15.10
16.73
18.39
19.71
20.14
19.49
18.21
17.34
18.10
21.25
26.92
34.83
44.89
57.47
73.09
91.57
111.23
128.87
140.65
143.56
136.55
120.74
98.46
71.93
42.35
10.16
-23.89
-57.66
-87.50
-109.38
-120.59
-121.12
-113.64
-102.25
-90.65
-80.82
-72.86
-65.73
-58.51
-51.17
-44.56
-39.83
-37.67
-37.85
-39.36
-40.87
-41.22
-39.84
-36.83
-32.80
-28.56
-24.81
-21.85
-19.54
-17.46
-15.15
-12.45
-9.60
-7.16
-5.73
-5.66
-6.85
-8.81
-10.89
-12.59
-13.65
-14.14
-14.21
-13.92
-13.18
-11.80
-9.67
-6.89
-3.82
-1.03
0.94
1.74
1.33
0.08
-1.49
-2.81
-3.56
-3.65
-3.21
-2.35
-1.15
0.35
2.06
3.66
4.72
4.83
3.79
1.76
-0.82
-3.35
-5.28
-6.24
-6.05
-4.80
-2.77
-0.47
1.43
2.39
2.13
0.86
-0.82
-2.11
-2.38
-1.34
0.80
3.50
6.01
7.67
8.05
7.13
5.30
3.24
1.75
1.41
2.36
4.22
6.22
7.59
7.85
7.03
5.57
4.04
2.91
2.35
2.28
2.46
2.66
2.71
2.50
1.96
1.06
-0.13
-1.45
-2.65
-3.42
-3.55
-2.98
-1.94
-0.83
-0.13
-0.21
-1.10
-2.56
-4.09
-5.27
-5.83
-5.83
-5.45
-4.87
-4.21
-3.49
-2.83
-2.44
-2.64
-3.61
-5.24
-7.04
-8.26
-8.26
-6.82
-4.37
-1.83
-0.28
-0.42
-2.29
-5.18
-7.92
-9.35
-8.76
-6.10
-1.95
2.74
6.90
9.60
10.27
8.85
5.80
2.02
-1.46
-3.81
-4.71
-4.39
-3.35
-2.16
-1.15
-0.36
0.42
1.47
3.04
5.19
7.62
9.64
10.39
9.17
5.95
1.59
-2.35
-4.26
-3.36
-0.09
3.97
6.94
7.49
5.49
1.88
-1.92
-4.83
-6.57
-7.49
-8.14
-8.68
-8.74
-7.72
-5.29
-1.86
1.56
3.76
4.00
2.35
-0.37
-3.04
-4.81
-5.39
-5.00
-4.12
-3.15
-2.25
-1.42
-0.60
0.18
0.85
1.33
1.67
2.02
2.55
3.33
4.20
4.84
4.90
4.09
2.38
-0.06
-2.93
-5.86
-8.54
-10.62
-11.80
-11.77
-10.42
-7.90
-4.76
-1.75
0.42
1.35
1.15
0.30
-0.60
-1.11
-1.16
-0.99
-0.95
-1.30
-2.00
-2.85
-3.59
-4.04
-4.18
-4.10
-3.79
-3.17
-2.08
-0.50
1.37
3.02
3.85
3.45
1.83
-0.54
-2.96
-4.81
-5.87
-6.28
-6.41
-6.47
-6.32
-5.53
-3.65
-0.59
3.13
6.44
8.10
7.12
3.30
-2.61
-9.11
-14.42
-17.07
-16.44
-12.81
-7.29
-1.39
3.39
5.87
5.43
2.16
-2.93
-7.96
-10.60
-8.87
-2.07
8.64
20.40
29.67
33.76
32.01
26.00
18.80
13.32
11.05
11.46
12.61
12.32
9.30
3.71
-3.17
-9.72
-14.73
-17.77
-19.09
-19.18
-18.37
-16.74
-14.20
-10.78
-6.77
-2.67
1.00
3.83
5.66
6.43
6.11
4.56
1.57
-2.93
-8.78
-15.45
-22.12
-27.94
-32.29
-35.01
-36.37
-36.85
-36.92
-36.81
-36.53
-35.97
-35.09
-34.10
-33.48
-33.94
-36.40
-41.74
-50.72
-63.61
-79.85
-97.77
-114.69
-127.52
-133.58
-131.49
-121.48
-105.00
-83.78
-58.94
-30.72
0.87
34.91
68.75
98.29
119.28
129.14
128.09
119.09
106.40
93.78
83.19
74.70
67.36
60.40
53.94
48.74
45.56
44.31
44.04
43.29
40.92
36.58
30.89
25.12
20.58
18.14
17.87
19.17
21.01
22.39
22.67
21.77
20.08
18.19
16.58
15.37
14.34
13.08
11.29
9.05
6.79
5.09
4.39
4.72
5.68
6.59
6.86
6.20
4.80
3.27
2.33
2.57
4.24
7.12
10.67
14.05
16.42
17.08
15.72
12.53
8.21
3.82
0.41
-1.29
-1.19
0.18
1.98
3.38
3.96
3.83
3.38
3.07
3.12
3.41
3.62
3.46
2.87
2.11
1.65
1.97
3.34
5.75
9.04
12.94
17.15
21.23
24.59
26.45
25.95
22.46
15.76
6.29
-4.87
-16.24
-26.21
-33.47
-37.30
-37.67
-35.21
-30.92
-25.82
-20.77
-16.26
-12.53
-9.70
-7.79
-6.75
-6.38
-6.33
-6.22
-5.83
-5.20
-4.54
-4.15
-4.19
-4.62
-5.21
-5.68
-5.84
-5.62
-5.03
-4.19
-3.24
-2.33
-1.68
-1.43
-1.63
-2.10
-2.53
-2.47
-1.61
0.24
3.02
6.48
10.25
13.99
17.47
20.59
23.40
25.96
28.27
30.29
32.09
34.01
36.91
42.19
51.36
65.26
83.13
102.17
118.02
125.98
122.48
106.16
78.10
41.25
-0.25
-41.84
-78.99
-107.76
-125.51
-131.66
-127.98
-118.14
-106.47
-96.48
-89.86
-86.51
-85.20
-84.62
-83.81
-82.24
-79.68
-76.33
-73.17
-71.82
-74.03
-80.42
-89.61
-98.17
-101.60
-95.88
-78.92
-51.04
-14.81
25.60
65.17
98.64
121.41
130.75
126.88
113.30
95.69
79.56
67.98
60.66
54.97
48.15
39.39
30.20
23.22
20.16
20.44
21.48
20.28
15.30
7.26
-1.29
-7.67
-10.43
-9.89
-7.68
-5.56
-4.61
-4.90
-5.87
-6.77
-7.12
-6.74
-5.68
-4.17
-2.62
-1.68
-2.00
-3.96
-7.35
-11.46
-15.31
-18.21
-20.08
-21.36
-22.68
-24.48
-26.84
-29.72
-33.22
-37.76
-43.68
-50.46
-56.23
-57.91
-52.43
-38.31
-16.79
8.21
31.47
48.51
57.19
58.18
54.05
47.79
41.47
35.84
30.74
25.87
21.38
17.77
15.55
14.77
14.95
15.29
15.05
13.84
11.85
9.65
7.89
7.11
7.51
8.91
10.79
12.34
12.76
11.53
8.66
4.75
0.67
-2.89
-5.76
-8.22
-10.69
-13.24
-15.40
-16.33
-15.41
-12.63
-8.77
-5.05
-2.67
-2.30
-4.02
-7.38
-11.60
-15.69
-18.50
-19.04
-16.77
-11.87
-5.32
1.38
6.82
10.03
10.77
9.46
6.88
3.96
1.48
-0.06
-0.47
0.15
1.48
3.17
4.98
6.76
8.45
9.97
11.15
11.85
11.97
11.65
11.15
10.69
10.31
9.80
8.83
7.26
5.26
3.28
1.85
1.32
1.70
2.72
3.94
4.93
5.48
5.53
5.21
4.66
4.01
3.32
2.57
1.76
0.93
0.20
-0.28
-0.38
-0.13
0.32
0.69
0.78
0.48
-0.11
-0.80
-1.40
-1.79
-1.97
-2.00
-1.96
-1.87
-1.66
-1.22
-0.41
0.92
2.86
5.34
8.01
10.25
11.32
10.59
7.89
3.62
-1.33
-5.92
-9.37
-11.36
-12.07
-11.90
-11.28
-10.44
-9.40
-8.15
-6.70
-5.20
-3.88
-2.95
-2.50
-2.46
-2.61
-2.72
-2.62
-2.30
-1.89
-1.56
-1.47
-1.62
-1.94
-2.24
-2.35
-2.16
-1.65
-0.92
-0.16
0.44
0.74
0.74
0.60
0.54
0.74
1.22
1.84
2.41
2.77
2.88
2.82
2.71
2.64
2.61
2.58
2.49
2.26
1.88
1.34
0.70
0.03
-0.54
-0.90
-1.02
-0.91
-0.67
-0.43
-0.30
-0.29
-0.37
-0.48
-0.61
-0.84
-1.26
-1.94
-2.81
-3.70
-4.34
-4.53
-4.24
-3.56
-2.72
-1.88
-1.12
-0.42
0.26
0.90
1.39
1.58
1.42
0.96
0.42
0.02
-0.07
0.19
0.70
1.26
1.74
2.05
2.20
2.26
2.26
2.18
1.97
1.60
1.11
0.60
0.19
-0.04
-0.13
-0.18
-0.27
-0.40
-0.44
-0.18
0.53
1.68
3.04
4.24
4.92
4.85
4.08
2.86
1.54
0.41
-0.39
-0.85
-1.08
-1.22
-1.34
-1.52
-1.80
-2.25
-2.91
-3.78
-4.77
-5.72
-6.45
-6.82
-6.78
-6.34
-5.53
-4.45
-3.17
-1.84
-0.57
0.52
1.36
1.93
2.24
2.31
2.16
1.78
1.16
0.32
-0.67
-1.68
-2.55
-3.13
-3.31
-3.10
-2.61
-2.07
-1.72
-1.74
-2.13
-2.72
-3.22
-3.37
-3.00
-2.18
-1.18
-0.34
0.01
-0.26
-1.06
-2.14
-3.19
-3.97
-4.31
-4.13
-3.38
-2.04
-0.20
1.91
3.93
5.49
6.35
6.49
6.12
5.51
4.87
4.23
3.51
2.61
1.59
0.60
-0.12
-0.48
-0.51
-0.43
-0.51
-0.91
-1.64
-2.49
-3.22
-3.60
-3.58
-3.25
-2.82
-2.52
-2.54
-3.01
-3.97
-5.38
-7.05
-8.68
-9.85
-10.21
-9.55
-7.99
-5.95
-3.98
-2.57
-1.91
-1.82
-1.89
-1.68
-0.95
0.20
1.37
2.10
2.08
1.31
0.11
-1.01
-1.49
-0.93
0.79
3.55
6.96
10.54
13.80
16.26
17.63
17.74
16.66
14.65
12.15
9.64
7.55
6.14
5.48
5.42
5.75
6.22
6.68
7.03
7.23
7.24
6.94
6.20
4.91
3.12
1.07
-0.85
-2.22
-2.82
-2.76
-2.44
-2.34
-2.82
-3.88
-5.20
-6.31
-6.82
-6.66
-5.95
-4.98
-3.95
-2.97
-2.10
-1.52
-1.55
-2.55
-4.71
-7.86
-11.42
-14.63
-16.77
-17.45
-16.69
-14.83
-12.41
-9.92
-7.71
-5.90
-4.38
-2.88
-1.04
1.40
4.45
7.80
10.85
13.00
13.82
13.27
11.72
9.78
8.13
7.20
7.17
7.90
9.06
10.20
10.90
10.85
9.92
8.18
5.95
3.65
1.67
0.32
-0.35
-0.45
-0.16
0.37
1.13
2.14
3.42
4.86
6.22
7.17
7.51
7.21
6.52
5.78
5.30
5.16
5.19
5.02
4.33
2.99
1.20
-0.59
-1.92
-2.51
-2.40
-1.97
-1.69
-1.98
-2.95
-4.37
-5.79
-6.71
-6.86
-6.22
-5.05
-3.62
-2.07
-0.37
1.47
3.19
4.20
3.80
1.57
-2.21
-6.58
-10.25
-12.26
-12.40
-11.21
-9.60
-8.27
-7.33
-6.41
-5.00
-2.98
-0.65
1.38
2.58
2.77
2.17
1.26
0.55
0.30
0.46
0.69
0.54
-0.42
-2.35
-5.05
-7.91
-10.25
-11.60
-11.99
-11.95
-12.19
-13.20
-14.90
-16.76
-18.13
-18.64
-18.46
-18.03
-17.65
-17.18
-16.06
-13.70
-9.99
-5.47
-1.18
1.85
3.18
3.05
2.23
1.53
1.43
1.89
2.52
2.98
3.16
3.26
3.65
4.61
6.16
8.09
10.03
11.67
12.85
13.57
13.90
13.86
13.41
12.52
11.26
9.86
8.64
7.85
7.58
7.75
8.14
8.58
9.01
9.48
10.06
10.74
11.28
11.28
10.26
7.94
4.39
0.16
-3.87
-6.77
-7.96
-7.43
-5.71
-3.66
-2.03
-1.19
-1.01
-1.14
-1.20
-1.05
-0.76
-0.47
-0.18
0.23
1.00
2.26
3.95
5.80
7.42
8.51
8.96
8.80
8.22
7.47
6.73
6.13
5.69
5.35
5.02
4.58
3.99
3.31
2.64
2.08
1.66
1.26
0.74
-0.11
-1.38
-3.09
-5.09
-7.11
-8.78
-9.74
-9.77
-8.86
-7.25
-5.43
-3.94
-3.22
-3.41
-4.33
-5.52
-6.45
-6.75
-6.34
-5.50
-4.70
-4.38
-4.71
-5.53
-6.46
-7.07
-7.12
-6.69
-6.03
-5.47
-5.21
-5.27
-5.54
-5.88
-6.24
-6.58
-6.89
-6.98
-6.56
-5.27
-2.86
0.59
4.68
8.68
11.86
13.63
13.79
12.46
10.08
7.17
4.29
1.93
0.39
-0.26
-0.30
-0.23
-0.59
-1.70
-3.45
-5.38
-6.94
-7.78
-7.89
-7.53
-6.87
-5.84
-4.21
-1.81
1.20
4.25
6.65
7.96
8.18
7.71
6.93
5.99
4.71
2.89
0.69
-1.19
-1.76
-0.23
3.50
8.70
14.09
18.37
20.68
20.80
18.96
15.52
10.78
4.99
-1.53
-8.17
-14.11
-18.52
-20.87
-21.04
-19.35
-16.39
-12.80
-9.22
-6.22
-4.31
-3.78
-4.59
-6.38
-8.50
-10.28
-11.20
-10.98
-9.56
-7.06
-3.75
-0.12
3.22
5.71
7.06
7.42
7.24
7.06
7.16
7.39
7.37
6.71
5.33
3.54
1.90
0.90
0.69
1.12
1.78
2.30
2.53
2.59
2.72
3.12
3.84
4.80
5.86
7.00
8.29
9.79
11.40
12.77
13.48
13.28
12.33
11.07
10.03
9.49
9.36
9.28
8.94
8.26
7.44
6.77
6.36
6.00
5.29
3.90
1.79
-0.69
-2.98
-4.60
-5.35
-5.42
-5.18
-5.02
-5.01
-4.95
-4.48
-3.40
-1.85
-0.35
0.39
-0.10
-1.85
-4.42
-7.07
-9.09
-10.08
-10.00
-9.14
-7.84
-6.44
-5.15
-4.09
-3.35
-2.94
-2.80
-2.75
-2.64
-2.35
-1.87
-1.35
-0.96
-0.87
-1.16
-1.77
-2.53
-3.18
-3.50
-3.32
-2.65
-1.67
-0.65
0.13
0.47
0.32
-0.17
-0.77
-1.16
-1.11
-0.56
0.31
1.09
1.28
0.54
-1.09
-3.25
-5.30
-6.62
-6.85
-5.91
-4.06
-1.68
0.77
2.84
4.20
4.67
4.28
3.26
1.94
0.54
-0.88
-2.43
-4.21
-6.22
-8.27
-10.12
-11.61
-12.78
-13.77
-14.72
-15.52
-15.73
-14.79
-12.25
-8.10
-2.94
2.26
6.44
8.88
9.44
8.51
6.77
4.88
3.26
2.09
1.39
1.12
1.17
1.40
1.53
1.24
0.24
-1.59
-4.11
-6.87
-9.24
-10.52
-10.26
-8.40
-5.40
-2.08
0.67
2.31
2.81
2.61
2.35
2.48
3.03
3.71
4.15
4.15
3.79
3.36
3.14
3.26
3.65
4.11
4.46
4.60
4.53
4.29
3.99
3.65
3.29
2.89
2.44
1.97
1.50
1.09
0.75
0.40
-0.02
-0.59
-1.32
-2.13
-2.89
-3.39
-3.38
-2.62
-1.00
1.33
3.88
5.94
6.88
6.45
4.84
2.67
0.65
-0.63
-0.84
0.16
2.40
5.76
9.86
13.99
17.19
18.59
17.78
15.04
11.25
7.45
4.49
2.69
1.90
1.72
1.79
1.99
2.42
3.29
4.70
6.54
8.44
9.84
10.17
9.02
6.34
2.54
-1.58
-5.05
-7.03
-7.19
-5.82
-3.71
-1.87
-1.06
-1.57
-3.16
-5.22
-7.10
-8.29
-8.57
-8.02
-6.94
-5.74
-4.82
-4.39
-4.34
-4.30
-3.76
-2.37
-0.17
2.36
4.42
5.29
4.57
2.50
-0.08
-2.05
-2.48
-1.05
1.60
4.04
4.63
2.32
-2.68
-8.83
-13.92
-16.04
-14.50
-10.20
-5.27
-2.13
-2.58
-7.06
-14.30
-21.78
-26.38
-25.36
-17.42
-3.68
11.92
23.22
23.84
9.94
-17.30
-51.09
-80.60
-94.54
-85.31
-51.91
-0.69
56.81
107.70
141.69
154.03
146.32
125.06
98.95
75.65
59.50
50.79
46.55
42.21
33.45
17.53
-6.21
-36.16
-68.74
-99.12
-122.47
-135.46
-137.27
-129.53
-115.39
-98.29
-81.40
-67.52
-59.59
-60.20
-70.25
-87.46
-105.82
-117.00
-113.55
-91.83
-53.76
-6.03
42.51
83.90
113.52
130.89
139.07
142.94
147.29
154.87
165.09
174.50
178.11
171.55
152.72
122.37
83.53
40.50
-2.03
-39.64
-68.55
-86.17
-91.79
-86.87
-74.75
-59.65
-45.33
-34.17
-26.96
-23.28
-22.21
-22.71
-23.78
-24.43
-23.78
-21.21
-16.67
-10.66
-4.11
1.80
5.99
7.64
6.41
2.40
-3.83
-11.43
-19.52
-27.27
-34.01
-39.13
-42.08
-42.39
-39.84
-34.73
-27.90
-20.64
-14.32
-9.92
-7.70
-7.25
-7.79
-8.67
-9.66
-10.96
-12.91
-15.60
-18.66
-21.28
-22.65
-22.41
-20.84
-18.74
-16.97
-16.00
-15.69
-15.46
-14.72
-13.28
-11.55
-10.32
-10.50
-12.72
-17.07
-22.95
-29.10
-33.81
-35.21
-31.77
-22.71
-8.32
9.93
29.64
48.03
62.54
71.46
74.30
71.81
65.67
57.98
50.61
44.83
41.05
38.99
37.99
37.40
36.76
35.94
35.08
34.56
34.76
35.88
37.85
40.22
42.35
43.61
43.75
43.10
42.83
44.79
50.99
62.67
79.25
97.80
113.45
120.64
114.90
94.46
61.00
19.37
-23.72
-61.42
-88.51
-102.51
-103.92
-95.70
-82.07
-67.16
-53.99
-44.08
-37.63
-34.16
-33.01
-33.52
-34.92
-36.25
-36.53
-35.13
-32.11
-28.26
-24.76
-22.64
-22.24
-23.10
-24.23
-24.61
-23.64
-21.36
-18.39
-15.57
-13.62
-12.87
-13.19
-14.10
-15.02
-15.45
-15.09
-13.90
-11.96
-9.45
-6.56
-3.51
-0.51
2.21
4.45
6.11
7.18
7.76
7.96
7.88
7.59
7.12
6.54
5.97
5.54
5.34
5.42
5.71
6.10
6.43
6.47
6.04
4.99
3.31
1.20
-1.03
-2.98
-4.35
-5.03
-5.10
-4.78
-4.24
-3.63
-3.01
-2.44
-2.02
-1.87
-2.05
-2.49
-3.00
-3.32
-3.25
-2.73
-1.88
-0.98
-0.32
-0.12
-0.38
-0.84
-1.01
-0.37
1.45
4.51
8.46
12.68
16.44
19.15
20.48
20.45
19.28
17.27
14.71
11.76
8.54
5.17
1.81
-1.39
-4.30
-6.86
-9.08
-10.92
-12.31
-13.11
-13.24
-12.68
-11.57
-10.07
-8.34
-6.49
-4.64
-3.02
-1.93
-1.65
-2.19
-3.23
-4.23
-4.69
-4.43
-3.62
-2.71
-2.07
-1.84
-1.89
-1.97
-1.94
-1.77
-1.60
-1.53
-1.57
-1.66
-1.70
-1.65
-1.58
-1.55
-1.62
-1.76
-1.92
-2.00
-1.93
-1.69
-1.33
-0.90
-0.54
-0.33
-0.32
-0.49
-0.79
-1.17
-1.57
-1.96
-2.31
-2.55
-2.56
-2.29
-1.74
-1.02
-0.29
0.26
0.55
0.55
0.37
0.11
-0.15
-0.41
-0.66
-0.90
-1.03
-0.88
-0.37
0.50
1.49
2.30
2.63
2.40
1.82
1.27
1.11
1.53
2.38
3.30
3.91
3.94
3.37
2.36
1.17
0.04
-0.81
-1.25
-1.17
-0.52
0.62
2.01
3.29
4.10
4.20
3.62
2.59
1.46
0.54
-0.05
-0.34
-0.44
-0.44
-0.36
-0.16
0.14
0.44
0.58
0.41
-0.09
-0.80
-1.50
-2.05
-2.40
-2.66
-2.96
-3.32
-3.62
-3.62
-3.14
-2.13
-0.74
0.74
2.00
2.87
3.35
3.53
3.52
3.34
2.96
2.35
1.54
0.67
-0.08
-0.58
-0.74
-0.62
-0.30
0.09
0.45
0.68
0.79
0.81
0.84
0.97
1.24
1.61
1.91
1.97
1.66
0.97
0.01
-1.05
-2.05
-2.88
-3.48
-3.79
-3.75
-3.35
-2.66
-1.81
-1.04
-0.55
-0.48
-0.85
-1.61
-2.68
-3.89
-5.01
-5.74
-5.80
-5.00
-3.42
-1.37
0.65
2.20
3.00
3.06
2.56
1.70
0.62
-0.64
-2.06
-3.47
-4.57
-4.98
-4.44
-2.98
-0.93
1.12
2.62
3.28
3.22
2.91
2.90
3.49
4.59
5.72
6.24
5.66
3.87
1.17
-1.87
-4.52
-6.15
-6.33
-5.04
-2.63
0.20
2.69
4.34
5.08
5.35
5.75
6.74
8.28
9.93
11.08
11.27
10.37
8.54
6.09
3.30
0.41
-2.35
-4.71
-6.42
-7.34
-7.56
-7.32
-6.94
-6.66
-6.57
-6.65
-6.86
-7.16
-7.52
-7.86
-8.11
-8.20
-8.18
-8.24
-8.58
-9.30
-10.27
-11.13
-11.46
-11.02
-9.95
-8.80
-8.30
-9.02
-11.03
-13.71
-15.94
-16.43
-14.36
-9.76
-3.72
2.02
5.67
6.12
3.42
-1.30
-6.38
-10.41
-12.71
-13.53
-13.66
-14.02
-15.30
-18.09
-22.99
-30.59
-40.96
-52.72
-62.95
-67.90
-64.74
-53.07
-35.11
-14.61
5.14
22.77
38.86
54.53
69.63
81.90
87.77
84.43
71.66
52.31
31.05
12.26
-1.68
-10.78
-16.50
-20.43
-23.32
-25.04
-25.18
-23.82
-21.94
-21.26
-23.43
-29.17
-37.80
-47.07
-53.75
-54.52
-47.24
-31.87
-10.64
12.65
34.15
51.34
63.68
72.17
78.16
82.19
83.78
82.07
77.02
70.14
64.36
63.07
68.71
81.51
99.03
116.46
127.80
127.51
112.38
82.83
43.22
0.64
-37.30
-64.88
-79.87
-83.56
-79.43
-71.35
-62.14
-53.17
-44.85
-37.45
-31.52
-27.84
-26.76
-27.83
-29.73
-30.79
-29.82
-26.61
-21.96
-17.23
-13.74
-12.16
-12.31
-13.34
-14.15
-13.93
-12.42
-10.00
-7.44
-5.49
-4.57
-4.59
-5.03
-5.21
-4.63
-3.19
-1.23
0.61
1.76
1.91
1.15
-0.07
-1.21
-1.83
-1.77
-1.17
-0.32
0.46
1.01
1.37
1.69
2.15
2.79
3.49
4.05
4.26
4.08
3.64
3.18
2.93
2.96
3.20
3.40
3.41
3.14
2.66
2.12
1.67
1.41
1.32
1.30
1.24
1.00
0.56
-0.01
-0.54
-0.87
-0.95
-0.92
-1.08
-1.72
-2.93
-4.48
-5.85
-6.51
-6.21
-5.14
-3.92
-3.24
-3.58
-4.86
-6.52
-7.71
-7.74
-6.44
-4.30
-2.27
-1.43
-2.50
-5.46
-9.45
-13.03
-14.84
-14.19
-11.50
-8.24
-6.19
-6.77
-10.31
-15.90
-21.81
-26.14
-27.41
-24.71
-18.07
-8.93
-0.64
1.88
-6.40
-28.05
-61.01
-98.09
-128.97
-143.90
-137.34
-109.84
-67.31
-18.35
28.72
67.90
96.00
112.12
116.93
112.33
101.22
87.26
74.14
64.66
60.22
60.59
64.16
68.62
71.76
72.28
70.52
68.57
69.60
76.53
90.29
108.87
127.41
139.67
140.08
125.60
96.64
56.85
12.04
-31.36
-67.68
-93.07
-106.08
-107.68
-100.76
-89.16
-76.51
-65.34
-56.68
-50.44
-46.02
-42.96
-41.00
-40.00
-39.62
-39.34
-38.57
-37.03
-34.91
-32.71
-31.06
-30.31
-30.30
-30.50
-30.24
-29.07
-26.96
-24.22
-21.24
-18.24
-15.18
-11.91
-8.33
-4.65
-1.21
1.62
3.64
4.83
5.26
5.01
4.18
2.90
1.48
0.33
-0.15
0.09
0.85
1.57
1.69
0.88
-0.92
-3.71
-7.60
-12.68
-18.69
-24.58
-28.47
-28.34
-23.00
-13.04
-0.91
9.83
16.01
16.04
10.49
1.56
-7.99
-15.95
-21.22
-23.78
-24.29
-23.77
-23.35
-24.44
-28.62
-37.23
-50.61
-67.29
-83.44
-93.44
-91.60
-74.49
-42.89
-2.21
39.14
72.74
93.23
99.88
96.05
86.97
77.12
68.73
61.78
55.23
48.55
42.43
38.41
37.88
41.00
46.35
51.53
54.20
53.21
49.07
43.85
40.32
41.03
47.58
59.98
76.58
94.15
108.39
114.66
109.18
90.19
58.92
19.64
-21.24
-57.04
-82.71
-96.15
-98.34
-92.40
-82.09
-70.43
-59.22
-49.16
-40.45
-33.27
-27.94
-24.66
-23.17
-22.73
-22.38
-21.41
-19.71
-17.75
-16.33
-16.10
-17.19
-19.08
-20.78
-21.31
-20.03
-17.01
-12.96
-8.98
-6.13
-4.96
-5.30
-6.40
-7.28
-7.12
-5.66
-3.25
-0.68
1.20
1.79
0.88
-1.25
-3.96
-6.30
-7.30
-6.25
-3.08
1.47
5.92
8.61
8.37
5.06
-0.28
-5.94
-10.28
-12.46
-12.72
-12.10
-11.82
-12.68
-14.67
-17.07
-18.87
-19.22
-17.91
-15.51
-13.21
-12.44
-14.51
-20.21
-29.42
-40.89
-52.28
-60.51
-62.62
-56.63
-42.43
-21.85
1.90
25.19
45.17
60.25
70.17
75.45
76.88
75.20
71.21
65.92
60.66
56.89
55.99
58.91
65.99
76.73
89.39
100.84
106.84
103.05
86.69
58.17
21.63
-16.07
-47.61
-67.93
-75.77
-73.55
-65.62
-56.06
-47.18
-39.43
-32.40
-25.99
-20.86
-18.12
-18.33
-20.90
-24.13
-25.96
-24.97
-21.01
-15.18
-9.34
-5.15
-3.41
-3.90
-5.62
-7.33
-8.16
-7.87
-6.88
-5.89
-5.53
-6.10
-7.42
-9.00
-10.22
-10.60
-9.93
-8.42
-6.54
-4.93
-4.13
-4.39
-5.56
-7.11
-8.39
-8.84
-8.23
-6.79
-5.12
-4.01
-4.10
-5.64
-8.33
-11.41
-13.95
-15.23
-15.09
-14.08
-13.17
-13.37
-15.17
-18.24
-21.55
-23.75
-23.89
-21.93
-18.91
-16.62
-17.18
-22.38
-33.15
-48.98
-67.64
-85.08
-96.13
-95.83
-81.17
-52.72
-14.86
25.30
60.35
85.06
97.77
100.14
95.57
87.34
77.54
67.16
56.99
48.28
42.78
41.78
45.18
51.15
56.61
58.73
56.21
49.95
42.66
37.88
38.69
46.66
61.25
79.64
97.09
107.86
106.72
90.77
60.84
21.74
-19.05
-53.79
-77.11
-87.43
-86.85
-79.51
-69.52
-59.51
-50.40
-42.11
-34.62
-28.45
-24.45
-23.13
-24.09
-25.93
-26.94
-25.92
-22.78
-18.46
-14.48
-12.06
-11.62
-12.58
-13.78
-14.09
-12.91
-10.38
-7.26
-4.48
-2.75
-2.28
-2.78
-3.58
-3.99
-3.46
-1.88
0.51
3.13
5.31
6.53
6.54
5.48
3.66
1.47
-0.77
-2.88
-4.73
-6.14
-6.90
-6.83
-5.89
-4.32
-2.54
-1.04
-0.12
0.21
0.21
0.27
0.67
1.51
2.65
3.76
4.45
4.42
3.52
1.82
-0.37
-2.59
-4.39
-5.42
-5.57
-4.97
-3.86
-2.54
-1.23
-0.07
0.84
1.44
1.70
1.66
1.44
1.26
1.29
1.63
2.21
2.84
3.29
3.43
3.22
2.74
2.10
1.42
0.78
0.28
0.02
0.13
0.66
1.53
2.49
3.16
3.20
2.44
1.09
-0.34
-1.20
-1.00
0.37
2.52
4.68
6.02
6.02
4.73
2.82
1.32
1.17
2.75
5.67
8.88
11.22
11.90
10.93
9.14
7.77
8.07
10.97
16.99
26.17
37.65
49.25
57.50
58.53
49.76
31.49
7.41
-16.54
-34.60
-43.56
-43.87
-38.82
-32.40
-27.30
-24.02
-21.52
-18.67
-15.34
-12.48
-11.32
-12.31
-14.73
-17.03
-17.62
-15.82
-12.14
-8.00
-4.94
-3.87
-4.71
-6.52
-8.06
-8.35
-7.15
-4.91
-2.51
-0.77
-0.11
-0.43
-1.25
-1.99
-2.20
-1.77
-0.89
0.09
0.85
1.20
1.15
0.80
0.35
-0.06
-0.38
-0.59
-0.73
-0.84
-0.94
-1.02
-1.02
-0.88
-0.54
0.01
0.68
1.35
1.83
2.03
1.95
1.71
1.46
1.29
1.19
1.07
0.85
0.50
0.12
-0.17
-0.26
-0.18
-0.04
0.02
-0.15
-0.51
-0.95
-1.27
-1.33
-1.06
-0.55
0.04
0.54
0.90
1.12
1.29
1.49
1.76
2.03
2.26
2.35
2.31
2.16
1.99
1.87
1.86
1.98
2.23
2.60
3.05
3.52
4.01
4.50
5.05
5.66
6.38
7.20
8.15
9.25
10.49
11.82
13.07
13.93
14.02
13.01
10.77
7.40
3.21
-1.41
-6.13
-10.72
-15.07
-19.04
-22.43
-24.94
-26.25
-26.20
-24.79
-22.27
-19.03
-15.55
-12.30
-9.67
-7.93
-7.11
-7.06
-7.45
-7.93
-8.25
-8.41
-8.62
-9.28
-10.70
-12.89
-15.52
-17.94
-19.49
-19.86
-19.27
-18.51
-18.60
-20.34
-23.85
-28.48
