1614326795.00
64.000000
-0.00
-0.00
-0.00
-0.00
-0.00
-0.00
-0.00
-0.00
-0.00
-0.00
0.00
0.01
0.01
-0.00
-0.03
-0.05
-0.05
0.00
0.13
0.36
0.66
1.01
1.37
1.71
2.04
2.39
2.80
3.28
3.86
4.47
5.05
5.52
5.86
6.13
6.41
6.81
7.39
8.25
9.27
10.31
11.21
11.94
12.56
13.30
14.39
16.00
18.30
21.04
23.86
26.41
28.56
30.46
32.55
35.38
39.29
44.55
50.62
56.78
62.32
66.94
70.94
75.11
80.42
87.49
96.65
107.01
117.34
126.50
133.97
140.22
146.47
154.56
163.37
174.88
189.04
205.23
221.79
235.87
243.70
241.45
226.50
198.33
159.17
112.30
61.25
8.32
-45.84
-101.44
-158.15
-213.76
-264.16
-304.08
-329.59
-339.32
-335.08
-321.02
-301.88
-281.41
-261.42
-242.05
-222.69
-203.40
-184.94
-168.40
-154.47
-142.89
-132.55
-122.04
-110.48
-97.75
-84.70
-72.54
-62.25
-54.17
-47.91
-42.57
-37.20
-31.22
-24.57
-17.79
-11.60
-6.64
-3.12
-0.77
0.98
2.74
4.90
7.47
10.15
12.52
14.26
15.30
15.78
15.97
16.10
16.29
16.53
16.71
16.72
16.49
16.03
15.38
14.62
13.87
13.23
12.80
12.62
12.64
12.76
12.84
12.76
12.51
12.15
11.75
11.43
11.20
11.03
10.86
10.63
10.30
9.90
9.49
9.14
8.89
8.73
8.62
8.48
8.26
7.91
7.45
6.87
6.24
5.61
5.08
4.77
4.76
5.05
5.53
6.00
6.29
6.29
6.05
5.68
5.32
5.06
4.89
4.77
4.67
4.61
4.61
4.70
4.85
4.98
5.00
4.88
4.68
4.48
4.35
4.29
4.25
4.12
3.86
3.51
3.15
2.90
2.82
2.91
3.09
3.26
3.37
3.41
3.42
3.43
3.48
3.53
3.53
3.48
3.37
3.28
3.25
3.31
3.42
3.49
3.48
3.35
3.15
2.94
2.79
2.70
2.66
2.63
2.61
2.58
2.55
2.50
2.40
2.22
1.93
1.55
1.14
0.81
0.66
0.72
0.96
1.29
1.60
1.80
1.91
1.99
2.08
2.17
2.22
2.14
1.94
1.67
1.44
1.31
1.28
1.24
1.12
0.86
0.47
0.05
-0.33
-0.59
-0.72
-0.72
-0.64
-0.52
-0.42
-0.35
-0.33
-0.30
-0.24
-0.12
0.01
0.05
-0.10
-0.44
-0.88
-1.23
-1.32
-1.05
-0.43
0.38
1.22
1.94
2.46
2.78
2.94
2.95
2.87
2.74
2.64
2.62
2.71
2.87
3.02
3.11
3.11
3.05
2.96
2.81
2.58
2.23
1.81
1.38
1.05
0.83
0.68
0.53
0.32
0.07
-0.16
-0.34
-0.46
-0.58
-0.71
-0.79
-0.73
-0.44
0.08
0.67
1.11
1.21
0.94
0.41
-0.16
-0.58
-0.71
-0.58
-0.25
0.14
0.47
0.68
0.72
0.60
0.37
0.12
-0.10
-0.21
-0.21
-0.11
0.06
0.26
0.48
0.69
0.89
1.02
1.07
1.02
0.95
0.94
1.08
1.41
1.88
2.39
2.81
3.06
3.14
3.12
3.13
3.23
3.48
3.84
4.24
4.62
4.95
5.22
5.48
5.82
6.28
6.88
7.54
8.15
8.62
8.94
9.28
9.87
10.99
12.73
15.01
17.47
19.71
21.41
22.53
23.39
24.60
26.76
30.21
34.79
39.86
44.53
48.10
50.40
51.95
53.73
56.83
61.86
68.70
76.48
83.96
90.00
94.05
96.43
98.23
101.09
106.71
116.09
128.83
142.69
153.60
156.52
146.70
121.34
80.80
29.03
-27.20
-80.08
-122.82
-151.46
-165.43
-167.14
-160.55
-149.66
-137.48
-125.73
-115.20
-106.24
-99.13
-94.01
-90.60
-88.04
-85.12
-80.79
-74.65
-67.20
-59.53
-52.94
-48.22
-45.36
-43.57
-41.72
-38.88
-34.72
-29.63
-24.49
-20.30
-17.70
-16.79
-17.09
-17.85
-18.36
-18.25
-17.57
-16.73
-16.25
-16.45
-17.29
-18.37
-19.12
-19.03
-17.92
-16.01
-13.87
-12.18
-11.45
-11.79
-12.87
-14.05
-14.63
-14.19
-12.71
-10.62
-8.71
-7.80
-8.54
-11.19
-15.61
-21.19
-26.97
-31.81
-34.75
-35.29
-33.64
-30.63
-27.34
-24.71
-23.21
-22.84
-23.44
-25.01
-27.84
-32.32
-38.51
-45.83
-53.02
-58.63
-61.62
-62.03
-61.04
-60.66
-63.03
-69.60
-80.38
-93.37
-104.71
-109.30
-102.24
-80.64
-45.06
0.11
47.78
90.47
122.84
143.23
153.52
157.61
159.22
160.33
160.92
159.96
156.67
151.45
145.77
141.38
139.48
140.29
143.20
147.24
151.36
154.18
153.62
146.84
130.92
104.21
67.63
25.04
-17.62
-54.32
-80.91
-96.21
-101.78
-100.60
-95.67
-89.21
-82.61
-76.91
-73.07
-71.82
-73.18
-76.18
-79.07
-80.02
-78.18
-74.10
-69.56
-66.75
-67.19
-70.92
-76.51
-81.79
-84.75
-84.56
-81.84
-78.40
-76.47
-77.95
-83.78
-93.51
-105.04
-114.76
-118.32
-112.04
-94.66
-68.23
-37.84
-9.98
9.95
19.61
20.62
17.61
16.12
20.29
31.32
47.40
64.84
79.88
90.07
94.89
95.35
93.01
89.10
84.01
77.62
70.02
61.99
54.90
50.03
47.84
47.58
47.67
46.49
43.16
37.92
31.95
26.72
23.27
21.83
21.77
22.04
21.61
19.97
17.21
13.92
10.86
8.60
7.38
7.03
7.14
7.19
6.82
5.90
4.59
3.19
2.03
1.35
1.17
1.33
1.58
1.70
1.56
1.21
0.74
0.30
-0.05
-0.28
-0.41
-0.47
-0.45
-0.34
-0.16
0.05
0.19
0.23
0.15
0.00
-0.13
-0.21
-0.26
-0.28
-0.30
-0.29
-0.23
-0.09
0.09
0.27
0.41
0.50
0.57
0.70
0.90
1.15
1.41
1.61
1.69
1.61
1.39
1.08
0.78
0.58
0.51
0.56
0.66
0.70
0.64
0.47
0.27
0.10
-0.00
-0.02
0.04
0.13
0.25
0.34
0.36
0.29
0.15
0.00
-0.06
0.01
0.20
0.43
0.61
0.70
0.69
0.63
0.54
0.45
0.33
0.18
-0.01
-0.21
-0.35
-0.38
-0.25
0.01
0.33
0.60
0.70
0.59
0.31
-0.05
-0.41
-0.68
-0.84
-0.88
-0.82
-0.68
-0.50
-0.34
-0.24
-0.22
-0.25
-0.26
-0.24
-0.17
-0.12
-0.10
-0.14
-0.20
-0.26
-0.33
-0.42
-0.55
-0.73
-0.89
-0.97
-0.94
-0.81
-0.65
-0.52
-0.44
-0.35
-0.20
0.05
0.36
0.59
0.65
0.49
0.16
-0.19
-0.43
-0.52
-0.48
-0.42
-0.37
-0.31
-0.17
0.07
0.36
0.56
0.53
0.27
-0.09
-0.34
-0.33
-0.05
0.38
0.73
0.85
0.72
0.44
0.16
-0.02
-0.11
-0.17
-0.31
-0.57
-0.92
-1.27
-1.51
-1.58
-1.47
-1.22
-0.89
-0.52
-0.15
0.17
0.39
0.47
0.44
0.33
0.24
0.20
0.22
0.27
0.29
0.28
0.26
0.27
0.30
0.32
0.27
0.10
-0.15
-0.40
-0.57
-0.58
-0.42
-0.15
0.15
0.38
0.51
0.54
0.53
0.57
0.68
0.84
0.97
0.99
0.86
0.65
0.43
0.30
0.27
0.29
0.27
0.22
0.19
0.25
0.42
0.60
0.70
0.61
0.36
0.10
-0.03
0.04
0.24
0.44
0.48
0.34
0.09
-0.15
-0.32
-0.40
-0.46
-0.53
-0.60
-0.60
-0.47
-0.24
0.00
0.13
0.08
-0.10
-0.30
-0.40
-0.36
-0.22
-0.07
-0.00
-0.01
-0.03
0.03
0.25
0.62
1.04
1.37
1.47
1.30
0.91
0.44
0.01
-0.29
-0.43
-0.47
-0.42
-0.30
-0.09
0.24
0.66
1.09
1.40
1.52
1.40
1.11
0.75
0.45
0.29
0.29
0.43
0.64
0.83
0.95
0.93
0.73
0.32
-0.28
-1.00
-1.72
-2.27
-2.54
-2.48
-2.12
-1.63
-1.14
-0.74
-0.42
-0.12
0.23
0.61
0.93
1.11
1.16
1.17
1.32
1.70
2.28
2.90
3.41
3.75
4.02
4.44
5.14
6.12
7.20
8.14
8.79
9.24
9.76
10.68
12.17
14.16
16.31
18.23
19.66
20.61
21.43
22.65
24.77
28.04
32.26
36.86
41.13
44.48
46.79
48.50
50.51
53.75
58.75
65.38
72.80
79.82
85.38
89.05
91.20
92.92
95.75
101.19
110.15
122.32
135.80
146.93
150.96
143.19
120.67
83.55
35.59
-16.71
-65.92
-105.92
-133.48
-148.59
-153.62
-151.80
-145.97
-138.01
-129.00
-119.73
-111.00
-103.63
-98.03
-93.94
-90.45
-86.35
-80.87
-73.97
-66.43
-59.36
-53.74
-49.90
-47.41
-45.37
-42.79
-39.10
-34.27
-28.84
-23.62
-19.39
-16.60
-15.22
-14.83
-14.74
-14.31
-13.10
-11.09
-8.58
-6.06
-3.91
-2.30
-1.08
0.01
1.18
2.48
3.73
4.68
5.17
5.18
4.83
4.27
3.57
2.71
1.61
0.25
-1.28
-2.76
-3.93
-4.59
-4.68
-4.31
-3.71
-3.16
-2.92
-3.12
-3.74
-4.60
-5.43
-5.92
-5.88
-5.28
-4.28
-3.13
-2.17
-1.62
-1.63
-2.14
-3.02
-4.04
-4.98
-5.67
-6.02
-6.02
-5.75
-5.32
-4.87
-4.49
-4.26
-4.18
-4.18
-4.07
-3.73
-3.05
-2.11
-1.11
-0.28
0.23
0.44
0.55
0.85
1.53
2.67
4.15
5.72
7.11
8.13
8.66
8.73
8.45
8.03
7.66
7.49
7.53
7.64
7.63
7.29
6.57
5.63
4.77
4.28
4.28
4.64
5.03
5.11
4.67
3.70
2.43
1.10
-0.10
-1.08
-1.89
-2.55
-3.07
-3.44
-3.65
-3.75
-3.79
-3.86
-3.99
-4.11
-4.16
-4.05
-3.69
-3.08
-2.23
-1.24
-0.20
0.76
1.53
1.96
1.93
1.37
0.32
-1.07
-2.54
-3.81
-4.68
-5.04
-4.85
-4.15
-2.99
-1.52
0.07
1.51
2.61
3.32
3.77
4.25
5.01
6.17
7.56
8.87
9.69
9.73
8.89
7.21
4.89
2.16
-0.68
-3.31
-5.42
-6.76
-7.32
-7.29
-7.07
-7.11
-7.75
-9.11
-11.12
-13.56
-16.02
-17.91
-18.42
-16.71
-12.30
-5.39
3.05
11.52
18.56
23.33
25.74
26.32
25.68
24.17
21.82
18.52
14.38
9.84
5.55
2.06
-0.44
-2.13
-3.38
-4.48
-5.59
-6.65
-7.50
-8.07
-8.36
-8.46
-8.44
-8.27
-7.86
-7.12
-6.02
-4.62
-3.09
-1.65
-0.46
0.39
0.85
0.94
0.72
0.29
-0.23
-0.77
-1.28
-1.78
-2.23
-2.58
-2.69
-2.47
-1.93
-1.20
-0.48
0.05
0.34
0.43
0.42
0.36
0.18
-0.21
-0.85
-1.63
-2.31
-2.65
-2.52
-2.02
-1.32
-0.61
0.03
0.65
1.30
1.96
2.48
2.66
2.37
1.64
0.64
-0.39
-1.29
-1.99
-2.57
-3.16
-3.89
-4.80
-5.89
-7.07
-8.23
-9.27
-10.14
-10.87
-11.51
-12.09
-12.59
-12.96
-13.23
-13.52
-14.03
-14.99
-16.49
-18.39
-20.27
-21.67
-22.21
-21.84
-20.79
-19.45
-18.12
-16.90
-15.66
-14.25
-12.69
-11.23
-10.29
-10.21
-11.12
-12.85
-15.11
-17.65
-20.38
-23.10
-25.21
-25.61
-22.97
-16.44
-6.32
5.73
17.11
25.28
28.78
27.74
23.65
18.48
13.80
10.26
7.55
4.97
1.90
-1.84
-6.02
-10.26
-14.25
-17.98
-21.61
-25.34
-29.27
-33.26
-37.12
-40.84
-44.86
-49.79
-55.77
-61.80
-65.73
-64.90
-57.35
-42.77
-22.72
-0.02
22.38
42.26
58.38
70.25
77.72
80.80
79.88
75.93
70.48
65.17
61.09
58.51
56.91
55.50
53.64
51.06
47.87
44.43
41.16
38.39
36.32
35.04
34.50
34.38
33.94
32.03
27.41
19.25
7.68
-6.05
-19.89
-31.83
-40.59
-45.85
-47.83
-46.73
-42.41
-34.62
-23.68
-10.89
1.54
11.32
17.04
18.75
17.75
15.80
14.23
13.52
13.42
13.44
13.28
13.06
13.07
13.52
14.31
15.13
15.59
15.44
14.81
14.12
13.90
14.52
15.96
17.82
19.44
20.30
20.24
19.56
18.89
18.81
19.67
21.43
23.78
26.22
28.09
28.66
27.23
23.38
17.29
9.80
2.18
-4.46
-9.65
-13.74
-17.61
-21.93
-26.73
-31.31
-34.69
-36.27
-36.15
-35.13
-34.17
-33.84
-34.10
-34.40
-34.09
-32.82
-30.75
-28.53
-26.96
-26.64
-27.53
-28.80
-28.93
-26.22
-19.49
-8.75
4.58
18.08
29.16
36.12
38.83
38.80
38.42
39.94
44.34
50.91
57.59
61.85
61.96
57.82
51.18
44.84
41.78
43.92
51.36
62.17
72.45
76.82
69.39
45.25
2.70
-54.77
-117.90
-173.51
-208.63
-215.34
-193.98
-152.93
-105.05
-62.42
-32.10
-14.80
-6.61
-2.40
1.31
5.37
8.89
11.01
12.04
13.37
16.41
21.47
27.41
32.00
33.22
30.31
24.23
17.30
12.14
10.45
12.45
16.85
21.65
25.11
26.37
25.56
23.60
21.64
20.74
21.60
24.50
29.21
35.07
41.14
46.52
50.66
53.49
55.36
56.71
57.75
58.34
58.26
57.45
56.16
55.00
54.53
55.04
56.54
58.89
62.20
66.87
73.58
82.65
93.23
102.85
107.71
103.82
88.65
62.38
28.24
-8.45
-42.19
-69.00
-87.41
-98.10
-102.86
-103.40
-100.79
-95.63
-88.52
-80.40
-72.44
-65.59
-60.24
-56.12
-52.67
-49.35
-45.92
-42.50
-39.47
-37.19
-35.87
-35.52
-35.85
-36.34
-36.30
-35.17
-32.72
-29.27
-25.59
-22.57
-20.79
-20.26
-20.43
-20.47
-19.76
-18.09
-15.75
-13.25
-11.05
-9.41
-8.33
-7.73
-7.52
-7.64
-8.03
-8.55
-8.99
-9.09
-8.71
-7.90
-6.89
-6.01
-5.52
-5.45
-5.61
-5.69
-5.48
-4.96
-4.34
-3.86
-3.71
-3.88
-4.26
-4.70
-5.11
-5.50
-5.88
-6.17
-6.20
-5.83
-5.03
-3.96
-2.93
-2.27
-2.14
-2.51
-3.17
-3.79
-4.02
-3.57
-2.35
-0.50
1.53
3.17
3.86
3.39
1.98
0.23
-1.19
-1.91
-2.08
-2.27
-3.16
-5.11
-7.96
-11.06
-13.58
-14.84
-14.63
-13.15
-10.93
-8.54
-6.44
-5.06
-4.87
-6.34
-9.81
-15.13
-21.43
-27.18
-30.64
-30.61
-27.12
-21.56
-16.28
-13.58
-14.80
-19.68
-26.59
-33.34
-38.23
-40.70
-41.52
-42.19
-44.08
-47.76
-52.86
-58.31
-62.82
-65.11
-64.03
-58.72
-48.87
-35.19
-19.69
-5.51
4.08
7.13
4.23
-1.34
-4.80
-1.93
8.93
26.17
45.70
62.86
74.43
79.54
79.46
76.33
71.92
66.95
61.37
55.08
48.59
42.93
39.18
37.76
38.12
39.03
39.10
37.51
34.31
30.32
26.66
24.20
23.26
23.46
24.00
24.02
22.99
20.90
18.23
15.68
13.83
12.88
12.55
12.31
11.63
10.25
8.34
6.36
4.87
4.23
4.48
5.34
6.33
7.00
7.06
6.53
5.71
5.07
5.10
6.09
7.97
10.26
12.27
13.41
13.46
12.82
12.37
13.07
15.53
19.54
24.05
27.56
28.82
27.49
24.47
21.59
20.83
23.38
28.96
35.92
41.86
44.82
44.08
40.42
35.68
32.01
31.06
33.44
38.31
43.18
43.90
35.32
12.72
-26.00
-78.39
-136.69
-189.25
-223.75
-231.39
-210.05
-165.02
-106.89
-47.70
3.02
40.47
64.65
78.53
85.85
89.53
91.35
92.46
94.04
97.34
103.15
111.18
119.88
127.09
131.21
132.33
132.47
134.68
141.39
152.64
165.19
173.02
169.19
148.50
109.76
56.81
-2.41
-58.32
-102.78
-131.44
-144.41
-145.28
-138.96
-129.71
-120.06
-110.92
-102.47
-94.98
-89.10
-85.51
-84.30
-84.59
-84.82
-83.50
-79.85
-74.18
-67.60
-61.49
-56.75
-53.55
-51.35
-49.33
-46.85
-43.73
-40.25
-36.91
-34.10
-31.85
-29.87
-27.71
-24.98
-21.52
-17.49
-13.27
-9.30
-6.00
-3.59
-2.11
-1.32
-0.87
-0.33
0.59
1.96
3.63
5.32
6.81
8.04
9.08
10.06
11.03
11.89
12.39
12.36
11.73
10.67
9.49
8.50
7.89
7.67
7.71
7.81
7.87
7.83
7.69
7.42
7.00
6.41
5.72
5.04
4.45
3.88
3.17
2.15
0.83
-0.52
-1.47
-1.65
-0.97
0.36
1.90
3.30
4.40
5.24
5.95
6.65
7.44
8.51
10.07
12.30
15.04
17.74
19.58
19.75
17.92
14.37
9.85
5.24
1.18
-2.07
-4.54
-6.38
-7.60
-8.14
-7.96
-7.17
-6.04
-4.98
-4.27
-4.01
-4.07
-4.16
-4.02
-3.47
-2.54
-1.40
-0.28
0.59
1.06
1.12
0.84
0.35
-0.24
-0.84
-1.45
-2.11
-2.88
-3.82
-4.95
-6.28
-7.76
-9.32
-10.81
-12.07
-12.93
-13.30
-13.20
-12.74
-12.09
-11.39
-10.65
-9.72
-8.39
-6.51
-4.10
-1.40
1.27
3.62
5.55
7.14
8.55
9.88
11.02
11.71
11.69
10.77
9.01
6.63
3.96
1.31
-1.09
-3.12
-4.80
-6.19
-7.39
-8.50
-9.53
-10.47
-11.25
-11.84
-12.17
-12.17
-11.75
-10.83
-9.38
-7.52
-5.50
-3.60
-2.04
-0.89
-0.03
0.75
1.68
2.90
4.41
6.09
7.74
9.18
10.26
10.92
11.15
11.02
10.62
10.02
9.28
8.50
7.75
7.13
6.66
6.31
5.99
5.53
4.82
3.80
2.48
0.95
-0.67
-2.26
-3.73
-5.03
-6.12
-7.06
-7.89
-8.62
-9.25
-9.71
-9.93
-9.89
-9.59
-9.12
-8.56
-8.04
-7.66
-7.47
-7.46
-7.60
-7.80
-8.00
-8.17
-8.37
-8.70
-9.23
-9.94
-10.68
-11.20
-11.32
-11.07
-10.68
-10.56
-11.10
-12.50
-14.62
-17.07
-19.32
-20.98
-21.97
-22.60
-23.47
-25.21
-28.19
-32.25
-36.73
-40.75
-43.57
-45.02
-45.61
-46.33
-48.18
-51.62
-56.37
-61.47
-65.72
-68.19
-68.64
-67.46
-65.63
-64.46
-65.32
-69.25
-76.43
-85.43
-92.83
-93.64
-82.78
-57.21
-17.78
30.37
79.25
120.79
149.69
164.93
169.38
167.80
164.47
161.71
159.75
157.70
154.72
150.81
146.71
143.33
141.32
140.93
142.34
145.75
151.01
156.80
160.01
155.96
139.96
109.45
65.77
14.36
-37.00
-80.95
-113.12
-133.10
-143.55
-148.18
-149.82
-149.72
-147.98
-144.74
-140.98
-138.42
-138.84
-143.32
-151.85
-163.30
-175.71
-186.35
-191.70
-187.81
-171.06
-139.58
-94.61
-40.86
14.47
63.93
102.14
127.21
140.54
145.33
144.78
140.99
135.12
127.97
120.77
115.19
112.72
113.99
118.41
124.30
129.37
131.16
127.35
116.23
97.33
71.90
42.92
14.44
-9.82
-27.71
-39.14
-45.60
-48.97
-50.46
-50.34
-48.41
-44.81
-40.49
-36.93
-35.36
-36.06
-38.18
-40.21
-40.77
-39.20
-35.83
-31.72
-28.11
-25.90
-25.28
-25.80
-26.58
-26.72
-25.69
-23.51
-20.72
-18.11
-16.32
-15.63
-15.84
-16.43
-16.87
-16.85
-16.39
-15.71
-15.05
-14.50
-14.02
-13.46
-12.73
-11.83
-10.78
-9.61
-8.23
-6.59
-4.67
-2.70
-1.05
-0.16
-0.34
-1.61
-3.69
-6.13
-8.52
-10.62
-12.41
-13.92
-15.04
-15.58
-15.40
-14.60
-13.51
-12.31
-10.73
-7.98
-3.02
4.69
14.69
25.48
35.08
41.85
45.19
45.63
44.28
42.22
40.00
37.66
35.07
32.28
29.60
27.42
25.94
25.03
24.34
23.45
22.14
20.48
18.79
17.41
16.59
16.36
16.52
16.80
16.91
16.72
16.27
15.72
15.32
15.28
15.67
16.23
16.41
15.40
12.52
7.53
0.93
-6.08
-12.02
-15.69
-16.64
-15.30
-12.73
-10.07
-8.06
-6.89
-6.29
-5.87
-5.40
-4.88
-4.40
-4.04
-3.71
-3.28
-2.67
-1.90
-1.15
-0.58
-0.23
0.01
0.31
0.77
1.29
1.58
1.33
0.44
-0.91
-2.27
-3.18
-3.36
-2.84
-1.84
-0.66
0.56
1.87
3.43
5.39
7.80
10.53
13.40
16.18
18.68
20.80
22.65
24.47
26.68
29.67
33.60
38.31
43.27
47.85
51.52
54.13
55.92
57.47
59.51
62.79
68.05
75.60
84.82
93.64
98.73
96.45
84.27
61.93
31.84
-1.76
-34.26
-62.06
-83.31
-97.75
-106.05
-109.17
-108.10
-103.91
-97.89
-91.46
-85.85
-81.80
-79.43
-78.36
-77.94
-77.38
-75.98
-73.36
-69.59
-65.15
-60.66
-56.61
-53.08
-49.57
-45.15
-38.76
-29.57
-17.34
-2.65
13.15
28.20
40.70
49.49
54.36
56.09
55.99
55.44
55.50
56.70
59.08
62.09
64.56
64.70
60.55
50.85
35.88
17.75
-0.13
-14.43
-23.18
-26.51
-26.23
-24.70
-23.61
-23.49
-23.91
-24.25
-24.29
-24.30
-24.66
-25.45
-26.28
-26.58
-25.99
-24.62
-23.02
-21.87
-21.56
-22.02
-22.79
-23.36
-23.51
-23.52
-24.10
-26.16
-30.31
-36.60
-44.37
-52.49
-59.79
-65.56
-69.76
-72.95
-75.86
-78.79
-81.20
-81.83
-79.22
-72.47
-61.86
-49.01
-36.37
-26.43
-20.98
-20.68
-24.76
-31.02
-35.85
-34.96
-24.54
-2.99
27.98
63.34
96.42
121.42
135.63
140.16
138.78
135.65
133.27
131.86
130.19
127.11
122.68
118.22
115.37
115.13
117.40
121.29
125.53
128.67
128.89
123.87
111.20
89.47
59.42
24.39
-10.49
-40.10
-61.24
-73.48
-78.74
-79.76
-78.72
-76.54
-73.30
-69.10
-64.64
-61.06
-59.26
-59.26
-60.13
-60.44
-58.98
-55.37
-50.21
-44.78
-40.42
-37.94
-37.32
-37.79
-38.22
-37.58
-35.39
-31.84
-27.61
-23.50
-20.06
-17.41
-15.23
-13.05
-10.47
-7.37
-3.90
-0.42
2.73
5.29
7.17
8.43
9.21
9.66
9.94
10.10
10.19
10.19
10.12
9.99
9.80
9.52
9.06
8.32
7.24
5.84
4.27
2.74
1.49
0.67
0.37
0.57
1.16
1.96
2.74
3.26
3.32
2.88
2.01
0.91
-0.21
-1.25
-2.21
-3.13
-4.02
-4.79
-5.31
-5.47
-5.28
-4.89
-4.49
-4.22
-4.03
-3.73
-3.14
-2.17
-0.92
0.33
1.32
1.85
1.91
1.63
1.19
0.73
0.28
-0.20
-0.80
-1.51
-2.23
-2.81
-3.10
-3.04
-2.71
-2.26
-1.83
-1.49
-1.21
-0.91
-0.53
-0.06
0.44
0.89
1.24
1.49
1.63
1.69
1.65
1.51
1.30
1.07
0.88
0.73
0.60
0.41
0.13
-0.22
-0.53
-0.68
-0.65
-0.47
-0.26
-0.11
-0.06
-0.10
-0.12
-0.11
-0.09
-0.14
-0.32
-0.64
-1.00
-1.25
-1.32
-1.19
-0.94
-0.70
-0.54
-0.46
-0.42
-0.36
-0.27
-0.19
-0.21
-0.36
-0.63
-0.88
-0.98
-0.81
-0.35
0.28
0.94
1.45
1.72
1.73
1.53
1.20
0.82
0.43
0.09
-0.16
-0.27
-0.23
-0.05
0.18
0.37
0.43
0.35
0.16
-0.07
-0.27
-0.41
-0.50
-0.60
-0.71
-0.78
-0.72
-0.49
-0.09
0.37
0.72
0.81
0.62
0.28
-0.02
-0.10
0.08
0.40
0.68
0.75
0.60
0.35
0.13
0.02
0.00
-0.04
-0.19
-0.45
-0.71
-0.86
-0.81
-0.62
-0.38
-0.19
-0.09
-0.03
0.03
0.13
0.19
0.14
-0.09
-0.45
-0.81
-1.01
-0.96
-0.67
-0.29
0.02
0.10
-0.09
-0.45
-0.81
-1.00
-0.94
-0.65
-0.25
0.13
0.36
0.42
0.35
0.21
0.10
0.10
0.24
0.52
0.89
1.26
1.47
1.44
1.16
0.73
0.32
0.08
0.05
0.13
0.21
0.19
0.10
0.06
0.19
0.53
0.97
1.32
1.39
1.14
0.68
0.21
-0.09
-0.16
-0.10
-0.04
-0.09
-0.28
-0.53
-0.79
-1.00
-1.20
-1.43
-1.71
-2.03
-2.35
-2.64
-2.92
-3.20
-3.48
-3.73
-3.88
-3.89
-3.76
-3.49
-3.13
-2.73
-2.37
-2.16
-2.23
-2.64
-3.33
-4.08
-4.59
-4.61
-4.06
-3.08
-1.91
-0.78
0.21
1.12
2.12
3.37
4.91
6.67
8.49
10.25
11.85
13.22
14.29
14.92
14.97
14.33
13.02
11.18
9.08
6.97
5.01
3.23
1.62
0.15
-1.09
-1.98
-2.40
-2.41
-2.18
-1.96
-1.91
-2.07
-2.32
-2.50
-2.54
-2.45
-2.36
-2.39
-2.61
-2.97
-3.38
-3.72
-3.88
-3.80
-3.49
-3.03
-2.54
-2.14
-1.87
-1.73
-1.65
-1.61
-1.59
-1.64
-1.78
-2.02
-2.22
-2.29
-2.13
-1.77
-1.33
-0.97
-0.78
-0.75
-0.78
-0.71
-0.50
-0.21
0.05
0.12
-0.04
-0.36
-0.68
-0.85
-0.77
-0.47
-0.07
0.27
0.45
0.41
0.20
-0.09
-0.31
-0.37
-0.26
-0.05
0.11
0.09
-0.14
-0.49
-0.81
-0.97
-0.93
-0.78
-0.64
-0.57
-0.54
-0.45
-0.24
0.07
0.39
0.62
0.67
0.58
0.41
0.26
0.17
0.16
0.20
0.29
0.42
0.56
0.67
0.69
0.56
0.28
-0.09
-0.48
-0.79
-0.94
-0.91
-0.72
-0.41
-0.06
0.28
0.56
0.75
0.81
0.74
0.56
0.34
0.17
0.13
0.23
0.38
0.47
0.39
0.09
-0.34
-0.78
-1.09
-1.21
-1.15
-0.98
-0.78
-0.60
-0.47
-0.39
-0.32
-0.24
-0.12
0.02
0.15
0.20
0.15
-0.01
-0.20
-0.36
-0.41
-0.32
-0.11
0.17
0.47
0.73
0.92
1.00
0.94
0.71
0.36
-0.03
-0.34
-0.49
-0.43
-0.19
0.14
0.48
0.75
0.90
0.93
0.83
0.61
0.31
-0.03
-0.34
-0.56
-0.65
-0.61
-0.44
-0.19
0.08
0.30
0.41
0.35
0.13
-0.21
-0.56
-0.81
-0.85
-0.67
-0.33
0.03
0.29
0.36
0.25
0.03
-0.16
-0.23
-0.13
0.06
0.26
0.39
0.42
0.35
0.23
0.11
0.03
0.00
0.04
0.16
0.32
0.50
0.63
0.68
0.58
0.34
0.01
-0.31
-0.52
-0.57
-0.44
-0.21
0.03
0.20
0.24
0.18
0.08
-0.02
-0.09
-0.12
-0.11
-0.07
0.02
0.17
0.33
0.46
0.50
0.44
0.30
0.14
0.02
-0.02
-0.00
0.02
-0.00
-0.09
-0.23
-0.36
-0.45
-0.52
-0.57
-0.62
-0.64
-0.59
-0.45
-0.22
0.02
0.19
0.22
0.11
-0.07
-0.26
-0.39
-0.43
-0.31
-0.04
0.38
0.88
1.33
1.56
1.48
1.07
0.43
-0.23
-0.74
-0.95
-0.86
-0.53
-0.10
0.29
0.51
0.52
0.33
0.03
-0.25
-0.43
-0.44
-0.30
-0.08
0.12
0.25
0.31
0.33
0.34
0.38
0.42
0.42
0.33
0.14
-0.13
-0.41
-0.61
-0.65
-0.52
-0.28
-0.01
0.22
0.35
0.41
0.42
0.41
0.36
0.25
0.08
-0.12
-0.27
-0.31
-0.21
-0.04
0.12
0.15
0.01
-0.24
-0.50
-0.66
-0.64
-0.45
-0.15
0.16
0.40
0.55
0.62
0.62
0.58
0.51
0.40
0.27
0.15
0.05
-0.02
-0.07
-0.10
-0.07
0.06
0.32
0.65
0.95
1.09
0.98
0.62
0.12
-0.37
-0.74
-0.94
-0.99
-0.94
-0.84
-0.68
-0.44
-0.13
0.20
0.45
0.53
0.43
0.20
-0.04
-0.20
-0.25
-0.21
-0.13
-0.07
-0.06
-0.07
-0.10
-0.15
-0.21
-0.27
-0.31
-0.28
-0.20
-0.11
-0.10
-0.22
-0.50
-0.88
-1.24
-1.45
-1.43
-1.18
-0.81
-0.44
-0.21
-0.14
-0.17
-0.18
-0.12
0.01
0.11
0.09
-0.07
-0.29
-0.41
-0.30
0.03
0.45
0.75
0.81
0.61
0.29
-0.01
-0.15
-0.11
0.05
0.21
0.32
0.35
0.34
0.31
0.30
0.31
0.33
0.33
0.30
0.24
0.14
0.01
-0.10
-0.19
-0.26
-0.31
-0.37
-0.42
-0.44
-0.39
-0.24
0.02
0.37
0.74
1.04
1.21
1.18
0.99
0.69
0.37
0.15
0.06
0.08
0.16
0.24
0.28
0.26
0.21
0.15
0.08
0.01
-0.06
-0.08
-0.04
0.08
0.25
0.41
0.50
0.47
0.34
0.15
-0.03
-0.11
-0.06
0.10
0.29
0.41
0.35
0.07
-0.36
-0.80
-1.11
-1.20
-1.10
-0.91
-0.72
-0.60
-0.51
-0.40
-0.23
-0.03
0.10
0.08
-0.12
-0.42
-0.70
-0.85
-0.83
-0.68
-0.50
-0.38
-0.35
-0.37
-0.41
-0.39
-0.32
-0.18
0.02
0.26
0.55
0.83
1.01
1.03
0.85
0.51
0.14
-0.13
-0.22
-0.13
0.08
0.30
0.45
0.50
0.43
0.27
0.06
-0.13
-0.22
-0.17
0.02
0.27
0.50
0.63
0.66
0.63
0.62
0.63
0.66
0.65
0.58
0.47
0.41
0.44
0.57
0.74
0.86
0.87
0.80
0.71
0.67
0.69
0.73
0.69
0.48
0.09
-0.44
-1.02
-1.51
-1.85
-1.95
-1.82
-1.50
-1.08
-0.67
-0.37
-0.24
-0.26
-0.34
-0.39
-0.32
-0.12
0.12
0.31
0.38
0.34
0.25
0.18
0.17
0.20
0.22
0.21
0.21
0.27
0.41
0.58
0.66
0.57
0.30
-0.08
-0.41
-0.55
-0.47
-0.24
-0.01
0.07
-0.04
-0.29
-0.53
-0.64
-0.55
-0.30
-0.01
0.17
0.20
0.13
0.07
0.17
0.45
0.85
1.22
1.41
1.37
1.15
0.87
0.65
0.57
0.61
0.69
0.71
0.65
0.54
0.47
0.51
0.65
0.84
0.92
0.79
0.44
-0.04
-0.50
-0.81
-0.95
-0.99
-1.09
-1.33
-1.67
-1.96
-2.04
-1.81
-1.32
-0.77
-0.35
-0.18
-0.25
-0.42
-0.56
-0.60
-0.58
-0.57
-0.63
-0.70
-0.67
-0.47
-0.12
0.22
0.38
0.23
-0.18
-0.69
-1.07
-1.21
-1.11
-0.87
-0.61
-0.39
-0.21
-0.05
0.06
0.07
-0.08
-0.34
-0.63
-0.81
-0.77
-0.53
-0.20
0.06
0.15
0.03
-0.24
-0.58
-0.89
-1.12
-1.26
-1.32
-1.32
-1.30
-1.30
-1.35
-1.49
-1.72
-2.03
-2.44
-2.94
-3.50
-4.07
-4.58
-4.96
-5.20
-5.34
-5.45
-5.58
-5.76
-5.95
-6.15
-6.37
-6.67
-7.09
-7.59
-8.02
-8.15
-7.78
-6.83
-5.41
-3.80
-2.29
-1.16
-0.56
-0.49
-0.88
-1.59
-2.43
-3.20
-3.72
-3.85
-3.53
-2.81
-1.81
-0.64
0.58
1.83
3.10
4.38
5.66
6.91
8.12
9.26
10.30
11.13
11.63
11.72
11.35
10.65
9.77
8.92
8.18
7.57
7.00
6.39
5.72
5.03
4.40
3.87
3.44
3.08
2.73
2.36
1.99
1.63
1.31
1.06
0.90
0.82
0.83
0.88
0.87
0.69
0.29
-0.33
-1.05
-1.73
-2.23
-2.46
-2.45
-2.27
-2.10
-2.06
-2.24
-2.62
-3.12
-3.65
-4.16
-4.68
-5.27
-5.96
-6.68
-7.32
-7.76
-7.99
-8.08
-8.15
-8.28
-8.48
-8.69
-8.90
-9.17
-9.64
-10.38
-11.33
-12.20
-12.61
-12.23
-10.97
